-1.94 0 1 -865
-1.63 0 1 -860
-1.30 0 1 -862
-0.97 0 1 -866
-0.66 0 1 -866
-0.39 0 1 -865
-0.18 0 1 -855
-0.05 0 1 -863
0.02 0 1 -868
0.02 0 1 -857
-0.03 0 1 -865
-0.11 0 1 -864
-0.20 0 1 -866
-0.28 0 1 -865
-0.30 0 1 -866
-0.26 0 1 -864
-0.12 0 1 -868
0.13 0 1 -863
0.49 0 1 -869
0.95 0 1 -866
1.48 0 1 -882
2.07 0 1 -865
2.67 0 1 -863
3.23 0 1 -865
3.70 0 1 -867
4.04 1 0 -863
4.21 1 0 -864
4.19 1 0 -875
3.97 1 0 -866
3.54 1 0 -870
2.93 1 0 -865
2.17 1 0 -778
1.31 1 0 -870
0.41 1 0 -867
-0.49 1 0 -865
-1.31 1 0 -865
-2.01 1 0 -867
-2.56 1 0 -866
-2.91 1 0 -866
-3.07 1 0 -868
-3.02 1 0 -864
-2.79 1 0 -864
-2.40 1 0 46
-1.89 1 0 54
-1.29 1 0 51
-0.65 1 0 19
-0.02 1 0 -21
0.57 1 0 6
1.07 1 0 20
1.46 1 0 55
1.73 1 0 66
1.86 1 0 67
1.85 0 1 68
1.71 0 1 61
1.46 0 1 36
1.12 0 1 14
0.71 0 1 -8
0.25 0 1 -14
-0.22 0 1 -133
-0.67 0 1 -180
-1.10 0 1 -211
-1.47 0 1 -220
-1.78 0 1 -216
-2.01 0 1 -252
-2.15 0 1 -147
-2.21 0 1 -161
-2.19 0 1 -208
-2.09 0 1 -183
-1.93 0 1 -190
-1.73 0 1 -199
-1.48 0 1 -113
-1.23 0 1 -258
-0.98 0 1 -160
-0.75 0 1 -215
-0.57 0 1 -179
-0.44 0 1 -137
-0.37 0 1 -163
-0.38 0 1 -169
-0.46 0 1 -157
-0.61 0 1 -162
-0.81 0 1 -185
-1.04 0 1 -159
-1.28 0 1 -145
-1.50 0 1 -160
-1.66 0 1 -157
-1.73 0 1 -155
-1.69 0 1 -127
-1.51 0 1 -125
-1.18 0 1 -129
-0.70 0 1 -100
-0.09 0 1 -142
0.64 0 1 -867
1.44 0 1 -868
2.25 0 1 -864
3.04 0 1 -869
3.73 1 0 -866
4.28 1 0 -867
4.64 1 0 -869
4.78 1 0 -860
4.67 1 0 -93
4.32 1 0 -109
3.76 1 0 -101
3.01 1 0 -122
2.13 1 0 -177
1.19 1 0 -182
0.23 1 0 -157
-0.66 1 0 -190
-1.43 1 0 -138
-2.04 1 0 -190
-2.45 1 0 -87
-2.63 1 0 -136
-2.60 1 0 14
-2.36 1 0 63
-1.93 1 0 83
-1.37 1 0 77
-0.71 1 0 55
-0.01 1 0 25
0.69 1 0 8
1.33 1 0 10
1.88 1 0 19
2.29 0 1 54
2.56 0 1 72
2.67 0 1 77
2.62 0 1 64
2.43 0 1 59
2.11 0 1 19
1.69 0 1 6
1.19 0 1 -36
0.66 0 1 -57
0.12 0 1 -123
-0.40 0 1 -139
-0.88 0 1 -225
-1.29 0 1 -194
-1.63 0 1 -298
-1.89 0 1 -196
-2.07 0 1 -138
-2.16 0 1 -198
-2.19 0 1 -206
-2.15 0 1 -188
-2.06 0 1 -198
-1.94 0 1 -243
-1.79 0 1 -173
-1.62 0 1 -260
-1.44 0 1 -124
-1.27 0 1 -196
-1.10 0 1 -207
-0.94 0 1 -224
-0.81 0 1 -148
-0.70 0 1 -203
-0.62 0 1 -231
-0.57 0 1 -225
-0.57 0 1 -218
-0.61 0 1 -203
-0.69 0 1 -198
-0.81 0 1 -219
-0.97 0 1 -151
-1.15 0 1 -237
-1.34 0 1 -189
-1.51 0 1 -204
-1.64 0 1 -166
-1.72 0 1 -194
-1.71 0 1 -177
-1.59 0 1 -145
-1.36 0 1 -159
-0.99 0 1 -157
-0.50 0 1 -143
0.10 0 1 -180
0.78 0 1 -186
1.51 0 1 -139
2.25 0 1 -156
2.94 0 1 -146
3.53 0 1 -183
3.98 1 0 -155
4.24 1 0 -156
4.29 1 0 -134
4.12 1 0 -145
3.73 1 0 -150
3.14 1 0 -165
2.40 1 0 -158
1.54 1 0 -156
0.64 1 0 -188
-0.26 1 0 -141
-1.08 1 0 -210
-1.78 1 0 -237
-2.32 1 0 -222
-2.66 1 0 -244
-2.79 1 0 -242
-2.71 1 0 -136
-2.43 1 0 -14
-1.98 1 0 68
-1.39 1 0 84
-0.72 1 0 78
-0.00 1 0 53
0.71 1 0 -1
1.38 1 0 -59
1.96 1 0 10
2.42 0 1 7
2.74 0 1 51
2.92 0 1 29
2.94 0 1 -27
2.83 0 1 -23
2.58 0 1 -145
2.24 0 1 -208
1.81 0 1 -258
1.34 0 1 -175
0.84 0 1 -189
0.34 0 1 -247
-0.13 0 1 -139
-0.56 0 1 -142
-0.94 0 1 -164
-1.25 0 1 -174
-1.50 0 1 -154
-1.69 0 1 -245
-1.82 0 1 -249
-1.90 0 1 -218
-1.94 0 1 -188
-1.94 0 1 -171
-1.92 0 1 -222
-1.88 0 1 -221
-1.82 0 1 -149
-1.76 0 1 -188
-1.69 0 1 -231
-1.61 0 1 -218
-1.54 0 1 -197
-1.45 0 1 -241
-1.37 0 1 -206
-1.29 0 1 -200
-1.21 0 1 -179
-1.14 0 1 -191
-1.07 0 1 -170
-1.02 0 1 -157
-0.98 0 1 -169
-0.96 0 1 -159
-0.94 0 1 -163
-0.93 0 1 -170
-0.91 0 1 -190
-0.88 0 1 -178
-0.83 0 1 -198
-0.73 0 1 -181
-0.57 0 1 -163
-0.35 0 1 -168
-0.06 0 1 -159
0.31 0 1 -179
0.75 0 1 -187
1.24 0 1 -197
1.76 0 1 -191
2.29 0 1 -198
2.78 0 1 -141
3.21 0 1 -155
3.54 0 1 -144
3.72 1 0 -132
3.75 1 0 -182
3.60 1 0 -164
3.28 1 0 -171
2.79 1 0 -136
2.16 1 0 -172
1.43 1 0 -169
0.64 1 0 -181
-0.16 1 0 -211
-0.91 1 0 -147
-1.57 1 0 -153
-2.09 1 0 -188
-2.45 1 0 -177
-2.63 1 0 -171
-2.62 1 0 -286
-2.43 1 0 -175
-2.08 1 0 5
-1.59 1 0 51
-1.02 1 0 83
-0.39 1 0 73
0.25 1 0 53
0.85 1 0 27
1.38 1 0 -67
1.81 1 0 2
2.12 1 0 -6
2.30 0 1 47
2.34 0 1 77
2.24 0 1 85
2.04 0 1 68
1.73 0 1 63
1.36 0 1 47
0.94 0 1 0
0.51 0 1 -106
0.09 0 1 -114
-0.30 0 1 -101
-0.63 0 1 -213
-0.91 0 1 -228
-1.12 0 1 -167
-1.25 0 1 -253
-1.33 0 1 -149
-1.35 0 1 -148
-1.33 0 1 -108
-1.27 0 1 -208
-1.20 0 1 -165
-1.13 0 1 -251
-1.06 0 1 -230
-1.00 0 1 -229
-0.96 0 1 -215
-0.93 0 1 -164
-0.92 0 1 -210
-0.91 0 1 -142
-0.91 0 1 -199
-0.91 0 1 -212
-0.90 0 1 -241
-0.89 0 1 -229
-0.86 0 1 -179
-0.83 0 1 -214
-0.80 0 1 -171
-0.77 0 1 -210
-0.75 0 1 -186
-0.75 0 1 -180
-0.77 0 1 -170
-0.82 0 1 -188
-0.89 0 1 -202
-0.97 0 1 -154
-1.07 0 1 -132
-1.17 0 1 -125
-1.24 0 1 -100
-1.26 0 1 -112
-1.22 0 1 -109
-1.08 0 1 -121
-0.85 0 1 -134
-0.50 0 1 -130
-0.04 0 1 -167
0.53 0 1 -192
1.17 0 1 -186
1.86 0 1 -185
2.55 0 1 -183
3.21 0 1 -207
3.77 1 0 -191
4.19 1 0 -244
4.43 1 0 -211
4.47 1 0 -211
4.29 1 0 -227
3.88 1 0 -178
3.28 1 0 -199
2.51 1 0 -216
1.61 1 0 -174
0.66 1 0 -210
-0.30 1 0 -200
-1.21 1 0 -179
-2.00 1 0 -230
-2.63 1 0 -225
-3.06 1 0 -218
-3.29 1 0 -123
-3.29 1 0 34
-3.08 1 0 64
-2.69 1 0 50
-2.15 1 0 -55
-1.50 1 0 -62
-0.78 1 0 -49
-0.06 1 0 -4
0.64 1 0 44
1.26 1 0 76
1.77 1 0 81
2.15 1 0 60
2.38 1 0 -33
2.47 0 1 17
2.41 0 1 14
2.23 0 1 -4
1.93 0 1 -69
1.56 0 1 -166
1.14 0 1 -157
0.69 0 1 -223
0.25 0 1 -176
-0.17 0 1 -253
-0.54 0 1 -170
-0.85 0 1 -242
-1.09 0 1 -229
-1.27 0 1 -259
-1.38 0 1 -282
-1.44 0 1 -214
-1.45 0 1 -295
-1.94 0 1 -210
-1.94 0 1 -184
-1.63 0 1 -202
-1.63 0 1 -218
-1.30 0 1 -250
-1.30 0 1 -227
-0.97 0 1 -206
-0.97 0 1 -248
-0.66 0 1 -261
-0.66 0 1 -195
-0.39 0 1 -270
-0.39 0 1 -221
-0.18 0 1 -199
-0.18 0 1 -221
-0.05 0 1 -249
-0.05 0 1 -207
0.02 0 1 -182
0.02 0 1 -140
0.02 0 1 -153
0.02 0 1 -162
-0.03 0 1 -187
-0.03 0 1 -165
-0.11 0 1 -159
-0.11 0 1 -173
-0.20 0 1 -164
-0.20 0 1 -204
-0.28 0 1 -159
-0.28 0 1 -197
-0.30 0 1 -198
-0.30 0 1 -196
-0.26 0 1 -190
-0.26 0 1 -205
-0.12 0 1 -217
-0.12 0 1 -235
0.13 0 1 -186
0.13 0 1 -184
0.49 0 1 -176
0.49 0 1 -153
0.95 0 1 -191
0.95 0 1 -157
1.48 0 1 -190
1.48 0 1 -197
2.07 0 1 -151
2.07 0 1 -171
2.67 0 1 -158
2.67 0 1 -159
3.23 0 1 -182
3.23 0 1 -173
3.70 0 1 -188
3.70 0 1 -212
4.04 1 0 -189
4.04 1 0 -208
4.21 1 0 -209
4.21 1 0 -234
4.19 1 0 -206
4.19 1 0 -181
3.97 1 0 -193
3.97 1 0 -251
3.54 1 0 -222
3.54 1 0 -180
2.93 1 0 -181
2.93 1 0 -235
2.17 1 0 -228
2.17 1 0 -221
1.31 1 0 -248
1.31 1 0 -214
0.41 1 0 -358
0.41 1 0 -203
-0.49 1 0 -43
-0.49 1 0 45
-1.31 1 0 78
-1.31 1 0 89
-2.01 1 0 90
-2.01 1 0 83
-2.56 1 0 76
-2.56 1 0 59
-2.91 1 0 42
-2.91 1 0 -23
-3.07 1 0 -60
-3.07 1 0 -126
-3.02 1 0 -60
-3.02 1 0 0
-2.79 1 0 30
-2.79 1 0 64
-2.40 1 0 36
-2.40 1 0 1
-1.89 1 0 -63
-1.89 1 0 -122
-1.29 1 0 -104
-1.29 1 0 -21
-0.65 1 0 15
-0.65 1 0 58
-0.02 1 0 78
-0.02 1 0 90
0.57 1 0 89
0.57 1 0 89
1.07 1 0 82
1.07 1 0 74
1.46 1 0 66
1.46 1 0 52
1.73 1 0 8
1.73 1 0 -52
1.86 1 0 -45
1.86 1 0 -4
1.85 0 1 40
1.85 0 1 69
1.71 0 1 66
1.71 0 1 18
1.46 0 1 -13
1.46 0 1 -93
1.12 0 1 -130
1.12 0 1 -195
0.71 0 1 -233
0.71 0 1 -217
0.25 0 1 -239
0.25 0 1 -148
-0.22 0 1 -148
-0.22 0 1 -139
-0.67 0 1 -187
-0.67 0 1 -215
-1.10 0 1 -269
-1.10 0 1 -272
-1.47 0 1 -261
-1.47 0 1 -240
-1.78 0 1 -241
-1.78 0 1 -224
-2.01 0 1 -187
-2.01 0 1 -227
-2.15 0 1 -242
-2.15 0 1 -244
-2.21 0 1 -247
-2.21 0 1 -216
-2.19 0 1 -210
-2.19 0 1 -184
-2.09 0 1 -138
-2.09 0 1 -235
-1.93 0 1 -204
-1.93 0 1 -195
-1.73 0 1 -205
-1.73 0 1 -200
-1.48 0 1 -202
-1.48 0 1 -222
-1.23 0 1 -196
-1.23 0 1 -158
-0.98 0 1 -178
-0.98 0 1 -182
-0.75 0 1 -160
-0.75 0 1 -154
-0.57 0 1 -137
-0.57 0 1 -217
-0.44 0 1 -161
-0.44 0 1 -152
-0.37 0 1 -145
-0.37 0 1 -138
-0.38 0 1 -140
-0.38 0 1 -151
-0.46 0 1 -132
-0.46 0 1 -174
-0.61 0 1 -224
-0.61 0 1 -195
-0.81 0 1 -217
-0.81 0 1 -218
-1.04 0 1 -186
-1.04 0 1 -185
-1.28 0 1 -183
-1.28 0 1 -224
-1.50 0 1 -198
-1.50 0 1 -199
-1.66 0 1 -184
-1.66 0 1 -229
-1.73 0 1 -206
-1.73 0 1 -219
-1.69 0 1 -198
-1.69 0 1 -223
-1.51 0 1 -204
-1.51 0 1 -229
-1.18 0 1 -188
-1.18 0 1 -180
-0.70 0 1 -182
-0.70 0 1 -172
-0.09 0 1 -192
-0.09 0 1 -185
0.64 0 1 -207
0.64 0 1 -184
1.44 0 1 -184
1.44 0 1 -197
2.25 0 1 -243
2.25 0 1 -218
3.04 0 1 -211
3.04 0 1 -213
3.73 1 0 -197
3.73 1 0 -208
4.28 1 0 -171
4.28 1 0 -184
4.64 1 0 -205
4.64 1 0 -188
4.78 1 0 -209
4.78 1 0 -207
4.67 1 0 -246
4.67 1 0 -264
4.32 1 0 -237
4.32 1 0 -224
3.76 1 0 -207
3.76 1 0 -242
3.01 1 0 -232
3.01 1 0 -236
2.13 1 0 -234
2.13 1 0 -277
1.19 1 0 -138
1.19 1 0 31
0.23 1 0 69
0.23 1 0 81
-0.66 1 0 85
-0.66 1 0 73
-1.43 1 0 69
-1.43 1 0 46
-2.04 1 0 12
-2.04 1 0 -55
-2.45 1 0 -18
-2.45 1 0 11
-2.63 1 0 47
-2.63 1 0 76
-2.60 1 0 54
-2.60 1 0 33
-2.36 1 0 -36
-2.36 1 0 -60
-1.93 1 0 -49
-1.93 1 0 -22
-1.37 1 0 36
-1.37 1 0 58
-0.71 1 0 48
-0.71 1 0 -22
-0.01 1 0 -70
-0.01 1 0 -156
0.69 1 0 -70
0.69 1 0 -58
1.33 1 0 -6
1.33 1 0 45
1.88 1 0 61
1.88 1 0 79
2.29 0 1 74
2.29 0 1 58
2.56 0 1 -19
2.56 0 1 -107
2.67 0 1 -219
2.67 0 1 -188
2.62 0 1 -238
2.62 0 1 -189
2.43 0 1 -272
2.43 0 1 -116
2.11 0 1 -166
2.11 0 1 -180
1.69 0 1 -145
1.69 0 1 -184
1.19 0 1 -186
1.19 0 1 -273
0.66 0 1 -156
0.66 0 1 -253
0.12 0 1 -185
0.12 0 1 -198
-0.40 0 1 -205
-0.40 0 1 -164
-0.88 0 1 -179
-0.88 0 1 -162
-1.29 0 1 -154
-1.29 0 1 -180
-1.63 0 1 -205
-1.63 0 1 -229
-1.89 0 1 -193
-1.89 0 1 -162
-2.07 0 1 -169
-2.07 0 1 -156
-2.16 0 1 -161
-2.16 0 1 -134
-2.19 0 1 -188
-2.19 0 1 -227
-2.15 0 1 -207
-2.15 0 1 -188
-2.06 0 1 -235
-2.06 0 1 -181
-1.94 0 1 -175
-1.94 0 1 -196
-1.79 0 1 -190
-1.79 0 1 -222
-1.62 0 1 -151
-1.62 0 1 -146
-1.44 0 1 -158
-1.44 0 1 -158
-1.27 0 1 -141
-1.27 0 1 -175
-1.10 0 1 -161
-1.10 0 1 -173
-0.94 0 1 -189
-0.94 0 1 -215
-0.81 0 1 -236
-0.81 0 1 -223
-0.70 0 1 -235
-0.70 0 1 -229
-0.62 0 1 -214
-0.62 0 1 -184
-0.57 0 1 -210
-0.57 0 1 -208
-0.57 0 1 -198
-0.57 0 1 -225
-0.61 0 1 -237
-0.61 0 1 -206
-0.69 0 1 -203
-0.69 0 1 -209
-0.81 0 1 -215
-0.81 0 1 -213
-0.97 0 1 -233
-0.97 0 1 -227
-1.15 0 1 -203
-1.15 0 1 -194
-1.34 0 1 -201
-1.34 0 1 -218
-1.51 0 1 -182
-1.51 0 1 -207
-1.64 0 1 -227
-1.64 0 1 -235
-1.72 0 1 -224
-1.72 0 1 -205
-1.71 0 1 -235
-1.71 0 1 -202
-1.59 0 1 -205
-1.59 0 1 -209
-1.36 0 1 -224
-1.36 0 1 -160
-0.99 0 1 -199
-0.99 0 1 -221
-0.50 0 1 -224
-0.50 0 1 -254
0.10 0 1 -216
0.10 0 1 -254
0.78 0 1 -216
0.78 0 1 -238
1.51 0 1 -236
1.51 0 1 -223
2.25 0 1 -225
2.25 0 1 -227
2.94 0 1 -211
2.94 0 1 -230
3.53 0 1 -211
3.53 0 1 -226
3.98 1 0 -237
3.98 1 0 -231
4.24 1 0 -240
4.24 1 0 -220
4.29 1 0 -212
4.29 1 0 -253
4.12 1 0 -219
4.12 1 0 -198
3.73 1 0 -219
3.73 1 0 -233
3.14 1 0 -225
3.14 1 0 -147
2.40 1 0 -231
2.40 1 0 -278
1.54 1 0 -189
1.54 1 0 -237
0.64 1 0 -217
0.64 1 0 -279
-0.26 1 0 -240
-0.26 1 0 -293
-1.08 1 0 -253
-1.08 1 0 -206
-1.78 1 0 -61
-1.78 1 0 31
-2.32 1 0 64
-2.32 1 0 76
-2.66 1 0 54
-2.66 1 0 -1
-2.79 1 0 -126
-2.79 1 0 -239
-2.71 1 0 -158
-2.71 1 0 -20
-2.43 1 0 30
-2.43 1 0 31
-1.98 1 0 1
-1.98 1 0 -122
-1.39 1 0 -81
-1.39 1 0 -5
-0.72 1 0 9
-0.72 1 0 37
-0.00 1 0 71
-0.00 1 0 78
0.71 1 0 67
0.71 1 0 36
1.38 1 0 -42
1.38 1 0 -95
1.96 1 0 -121
1.96 1 0 -45
2.42 0 1 20
2.42 0 1 23
2.74 0 1 9
2.74 0 1 -38
2.92 0 1 -82
2.92 0 1 -238
2.94 0 1 -241
2.94 0 1 -303
2.83 0 1 -336
2.83 0 1 -226
2.58 0 1 -188
2.58 0 1 -221
2.24 0 1 -174
2.24 0 1 -175
1.81 0 1 -272
1.81 0 1 -188
1.34 0 1 -203
1.34 0 1 -177
0.84 0 1 -233
0.84 0 1 -247
0.34 0 1 -281
0.34 0 1 -228
-0.13 0 1 -223
-0.13 0 1 -247
-0.56 0 1 -242
-0.56 0 1 -210
-0.94 0 1 -188
-0.94 0 1 -226
-1.25 0 1 -212
-1.25 0 1 -206
-1.50 0 1 -172
-1.50 0 1 -211
-1.69 0 1 -207
-1.69 0 1 -184
-1.82 0 1 -220
-1.82 0 1 -208
-1.90 0 1 -218
-1.90 0 1 -215
-1.94 0 1 -205
-1.94 0 1 -193
-1.94 0 1 -180
-1.94 0 1 -217
-1.92 0 1 -231
-1.92 0 1 -219
-1.88 0 1 -249
-1.88 0 1 -203
-1.82 0 1 -233
-1.82 0 1 -210
-1.76 0 1 -223
-1.76 0 1 -218
-1.69 0 1 -232
-1.69 0 1 -219
-1.61 0 1 -211
-1.61 0 1 -221
-1.54 0 1 -171
-1.54 0 1 -213
-1.45 0 1 -160
-1.45 0 1 -184
-1.37 0 1 -237
-1.37 0 1 -206
-1.29 0 1 -193
-1.29 0 1 -192
-1.21 0 1 -159
-1.21 0 1 -180
-1.14 0 1 -172
-1.14 0 1 -165
-1.07 0 1 -187
-1.07 0 1 -195
-1.02 0 1 -153
-1.02 0 1 -153
-0.98 0 1 -144
-0.98 0 1 -140
-0.96 0 1 -153
-0.96 0 1 -201
-0.94 0 1 -206
-0.94 0 1 -224
-0.93 0 1 -201
-0.93 0 1 -205
-0.91 0 1 -186
-0.91 0 1 -215
-0.88 0 1 -162
-0.88 0 1 -191
-0.83 0 1 -203
-0.83 0 1 -175
-0.73 0 1 -184
-0.73 0 1 -171
-0.57 0 1 -190
-0.57 0 1 -165
-0.35 0 1 -184
-0.35 0 1 -172
-0.06 0 1 -145
-0.06 0 1 -159
0.31 0 1 -170
0.31 0 1 -177
0.75 0 1 -183
0.75 0 1 -205
1.24 0 1 -194
1.24 0 1 -178
1.76 0 1 -176
1.76 0 1 -164
2.29 0 1 -153
2.29 0 1 -148
2.78 0 1 -147
2.78 0 1 -179
3.21 0 1 -178
3.21 0 1 -179
3.54 0 1 -184
3.54 0 1 -185
3.72 1 0 -164
3.72 1 0 -174
3.75 1 0 -202
3.75 1 0 -196
3.60 1 0 -190
3.60 1 0 -177
3.28 1 0 -178
3.28 1 0 -177
2.79 1 0 -199
2.79 1 0 -168
2.16 1 0 -168
2.16 1 0 -166
1.43 1 0 -204
1.43 1 0 -225
0.64 1 0 -177
0.64 1 0 -216
-0.16 1 0 -212
-0.16 1 0 -239
-0.91 1 0 -231
-0.91 1 0 -245
-1.57 1 0 -328
-1.57 1 0 -110
-2.09 1 0 -124
-2.09 1 0 -72
-2.45 1 0 6
-2.45 1 0 17
-2.63 1 0 53
-2.63 1 0 75
-2.62 1 0 37
-2.62 1 0 -13
-2.43 1 0 -73
-2.43 1 0 -232
-2.08 1 0 -124
-2.08 1 0 -50
-1.59 1 0 -11
-1.59 1 0 13
-1.02 1 0 28
-1.02 1 0 65
-0.39 1 0 74
-0.39 1 0 74
0.25 1 0 71
0.25 1 0 43
0.85 1 0 -12
0.85 1 0 -48
1.38 1 0 -41
1.38 1 0 -59
1.81 1 0 8
1.81 1 0 42
2.12 0 1 64
2.12 0 1 79
2.30 0 1 76
2.30 0 1 49
2.34 0 1 -9
2.34 0 1 -91
2.24 0 1 -128
2.24 0 1 -249
2.04 0 1 -157
2.04 0 1 -282
1.73 0 1 -305
1.73 0 1 -222
1.36 0 1 -128
1.36 0 1 -195
0.94 0 1 -211
0.94 0 1 -297
0.51 0 1 -320
0.51 0 1 -244
0.09 0 1 -206
0.09 0 1 -184
-0.30 0 1 -285
-0.30 0 1 -231
-0.63 0 1 -269
-0.63 0 1 -249
-0.91 0 1 -245
-0.91 0 1 -202
-1.12 0 1 -155
-1.12 0 1 -161
-1.25 0 1 -209
-1.25 0 1 -215
-1.33 0 1 -271
-1.33 0 1 -287
-1.35 0 1 -280
-1.35 0 1 -258
-1.33 0 1 -252
-1.33 0 1 -208
-1.27 0 1 -242
-1.27 0 1 -237
-1.20 0 1 -228
-1.20 0 1 -238
-1.13 0 1 -166
-1.13 0 1 -172
-1.06 0 1 -192
-1.06 0 1 -150
-1.00 0 1 -208
-1.00 0 1 -167
-0.96 0 1 -177
-0.96 0 1 -169
-0.93 0 1 -188
-0.93 0 1 -167
-0.92 0 1 -192
-0.92 0 1 -184
-0.91 0 1 -187
-0.91 0 1 -194
-0.91 0 1 -190
-0.91 0 1 -229
-0.91 0 1 -215
-0.91 0 1 -184
-0.90 0 1 -190
-0.90 0 1 -182
-0.89 0 1 -204
-0.89 0 1 -236
-0.86 0 1 -187
-0.86 0 1 -220
-0.83 0 1 -224
-0.83 0 1 -188
-0.80 0 1 -222
-0.80 0 1 -201
-0.77 0 1 -230
-0.77 0 1 -223
-0.75 0 1 -215
-0.75 0 1 -182
-0.75 0 1 -206
-0.75 0 1 -205
-0.77 0 1 -240
-0.77 0 1 -202
-0.82 0 1 -235
-0.82 0 1 -200
-0.89 0 1 -190
-0.89 0 1 -205
-0.97 0 1 -181
-0.97 0 1 -227
-1.07 0 1 -221
-1.07 0 1 -206
-1.17 0 1 -213
-1.17 0 1 -235
-1.24 0 1 -214
-1.24 0 1 -199
-1.26 0 1 -211
-1.26 0 1 -207
-1.22 0 1 -199
-1.22 0 1 -219
-1.08 0 1 -202
-1.08 0 1 -215
-0.85 0 1 -179
-0.85 0 1 -191
-0.50 0 1 -196
-0.50 0 1 -179
-0.04 0 1 -203
-0.04 0 1 -200
0.53 0 1 -216
0.53 0 1 -210
1.17 0 1 -185
1.17 0 1 -180
1.86 0 1 -179
1.86 0 1 -206
2.55 0 1 -236
2.55 0 1 -229
3.21 0 1 -192
3.21 0 1 -185
3.77 1 0 -175
3.77 1 0 -180
4.19 1 0 -179
4.19 1 0 -173
4.43 1 0 -185
4.43 1 0 -178
4.47 1 0 -186
4.47 1 0 -200
4.29 1 0 -173
4.29 1 0 -165
3.88 1 0 -164
3.88 1 0 -172
3.28 1 0 -150
3.28 1 0 -156
2.51 1 0 -213
2.51 1 0 -259
1.61 1 0 -227
1.61 1 0 -264
0.66 1 0 -232
0.66 1 0 -250
-0.30 1 0 -205
-0.30 1 0 -152
-1.21 1 0 -124
-1.21 1 0 -214
-2.00 1 0 -185
-2.00 1 0 -79
-2.63 1 0 -28
-2.63 1 0 25
-3.06 1 0 65
-3.06 1 0 77
-3.29 1 0 57
-3.29 1 0 -25
-3.29 1 0 -80
-3.29 1 0 -236
-3.08 1 0 -193
-3.08 1 0 0
-2.69 1 0 -27
-2.69 1 0 -24
-2.15 1 0 31
-2.15 1 0 58
-1.50 1 0 35
-1.50 1 0 -41
-0.78 1 0 -123
-0.78 1 0 -166
-0.06 1 0 -230
-0.06 1 0 -106
0.64 1 0 -51
0.64 1 0 -5
1.26 1 0 26
1.26 1 0 63
1.77 1 0 76
1.77 1 0 81
2.15 1 0 74
2.15 1 0 62
2.38 1 0 3
2.38 1 0 -85
2.47 0 1 -66
2.47 0 1 -58
2.41 0 1 -124
2.41 0 1 -209
2.23 0 1 -172
2.23 0 1 -257
1.93 0 1 -210
1.93 0 1 -156
1.56 0 1 -219
1.56 0 1 -214
1.14 0 1 -186
1.14 0 1 -235
0.69 0 1 -208
0.69 0 1 -265
0.25 0 1 -266
0.25 0 1 -187
-0.17 0 1 -183
-0.17 0 1 -317
-0.54 0 1 -320
-0.54 0 1 -231
-0.85 0 1 -201
-0.85 0 1 -172
-1.09 0 1 -266
-1.09 0 1 -165
-1.27 0 1 -163
-1.27 0 1 -206
-1.38 0 1 -217
-1.38 0 1 -175
-1.44 0 1 -215
-1.44 0 1 -175
-1.45 0 1 -217
-1.45 0 1 -279
5 Loops Complete both delayed and normal
-1.94 0 1 -240
-1.63 0 1 -198
-1.30 0 1 -121
-0.97 0 1 -199
-0.66 0 1 -169
-0.39 0 1 -183
-0.18 0 1 -151
-0.05 0 1 -157
0.02 0 1 -176
0.02 0 1 -181
-0.03 0 1 -152
-0.11 0 1 -130
-0.20 0 1 -192
-0.28 0 1 -154
-0.30 0 1 -187
-0.26 0 1 -173
-0.12 0 1 -167
0.13 0 1 -174
0.49 0 1 -204
0.95 0 1 -161
1.48 0 1 -167
2.07 0 1 -160
2.67 0 1 -180
3.23 0 1 -163
3.70 0 1 -215
4.04 1 0 -182
4.21 1 0 -180
4.19 1 0 -184
3.97 1 0 -198
3.54 1 0 -180
2.93 1 0 -198
2.17 1 0 -202
1.31 1 0 -185
0.41 1 0 -180
-0.49 1 0 -187
-1.31 1 0 -182
-2.01 1 0 -198
-2.56 1 0 -180
-2.91 1 0 -198
-3.07 1 0 -193
-3.02 1 0 -198
-2.79 1 0 -215
-2.40 1 0 -190
-1.89 1 0 -232
-1.29 1 0 -303
-0.65 1 0 -244
-0.02 1 0 -205
0.57 1 0 -222
1.07 1 0 -135
1.46 1 0 -54
1.73 1 0 -11
1.86 1 0 30
1.85 0 1 53
1.71 0 1 38
1.46 0 1 -166
1.12 0 1 -177
0.71 0 1 -238
0.25 0 1 -234
-0.22 0 1 -282
-0.67 0 1 -194
-1.10 0 1 -134
-1.47 0 1 -243
-1.78 0 1 -216
-2.01 0 1 -217
-2.15 0 1 -217
-2.21 0 1 -260
-2.19 0 1 -288
-2.09 0 1 -302
-1.93 0 1 -244
-1.73 0 1 -215
-1.48 0 1 -207
-1.23 0 1 -201
-0.98 0 1 -205
-0.75 0 1 -196
-0.57 0 1 -210
-0.44 0 1 -235
-0.37 0 1 -168
-0.38 0 1 -203
-0.46 0 1 -228
-0.61 0 1 -175
-0.81 0 1 -177
-1.04 0 1 -156
-1.28 0 1 -207
-1.50 0 1 -212
-1.66 0 1 -216
-1.73 0 1 -196
-1.69 0 1 -186
-1.51 0 1 -217
-1.18 0 1 -158
-0.70 0 1 -146
-0.09 0 1 -155
0.64 0 1 -171
1.44 0 1 -205
2.25 0 1 -173
3.04 0 1 -168
3.73 1 0 -182
4.28 1 0 -173
4.64 1 0 -211
4.78 1 0 -193
4.67 1 0 -168
4.32 1 0 -183
3.76 1 0 -166
3.01 1 0 -194
2.13 1 0 -215
1.19 1 0 -233
0.23 1 0 -229
-0.66 1 0 -176
-1.43 1 0 -240
-2.04 1 0 -280
-2.45 1 0 -213
-2.63 1 0 -203
-2.60 1 0 -227
-2.36 1 0 -237
-1.93 1 0 -217
-1.37 1 0 -201
-0.71 1 0 -286
-0.01 1 0 -105
0.69 1 0 -167
1.33 1 0 -100
1.88 1 0 15
2.29 0 1 22
2.56 0 1 50
2.67 0 1 0
2.62 0 1 -101
2.43 0 1 -196
2.11 0 1 -320
1.69 0 1 -248
1.19 0 1 -233
0.66 0 1 -212
0.12 0 1 -243
-0.40 0 1 -174
-0.88 0 1 -173
-1.29 0 1 -232
-1.63 0 1 -281
-1.89 0 1 -216
-2.07 0 1 -235
-2.16 0 1 -222
-2.19 0 1 -192
-2.15 0 1 -112
-2.06 0 1 -213
-1.94 0 1 -238
-1.79 0 1 -193
-1.62 0 1 -201
-1.44 0 1 -206
-1.27 0 1 -175
-1.10 0 1 -229
-0.94 0 1 -172
-0.81 0 1 -207
-0.70 0 1 -184
-0.62 0 1 -176
-0.57 0 1 -147
-0.57 0 1 -175
-0.61 0 1 -168
-0.69 0 1 -205
-0.81 0 1 -225
-0.97 0 1 -208
-1.15 0 1 -245
-1.34 0 1 -253
-1.51 0 1 -246
-1.64 0 1 -219
-1.72 0 1 -222
-1.71 0 1 -235
-1.59 0 1 -255
-1.36 0 1 -243
-0.99 0 1 -239
-0.50 0 1 -179
0.10 0 1 -179
0.78 0 1 -163
1.51 0 1 -203
2.25 0 1 -203
2.94 0 1 -235
3.53 0 1 -241
3.98 1 0 -230
4.24 1 0 -231
4.29 1 0 -214
4.12 1 0 -239
3.73 1 0 -244
3.14 1 0 -208
2.40 1 0 -200
1.54 1 0 -248
0.64 1 0 -221
-0.26 1 0 -229
-1.08 1 0 -220
-1.78 1 0 -204
-2.32 1 0 -235
-2.66 1 0 -267
-2.79 1 0 -313
-2.71 1 0 -262
-2.43 1 0 -181
-1.98 1 0 -214
-1.39 1 0 -274
-0.72 1 0 -234
-0.00 1 0 -244
0.71 1 0 -297
1.38 1 0 -240
1.96 1 0 -63
2.42 0 1 -60
2.74 0 1 8
2.92 0 1 -85
2.94 0 1 -303
2.83 0 1 -214
2.58 0 1 -285
2.24 0 1 -172
1.81 0 1 -234
1.34 0 1 -168
0.84 0 1 -211
0.34 0 1 -191
-0.13 0 1 -212
-0.56 0 1 -261
-0.94 0 1 -222
-1.25 0 1 -284
-1.50 0 1 -190
-1.69 0 1 -185
-1.82 0 1 -221
-1.90 0 1 -223
-1.94 0 1 -219
-1.94 0 1 -248
-1.92 0 1 -227
-1.88 0 1 -195
-1.82 0 1 -149
-1.76 0 1 -169
-1.69 0 1 -213
-1.61 0 1 -196
-1.54 0 1 -171
-1.45 0 1 -193
-1.37 0 1 -171
-1.29 0 1 -207
-1.21 0 1 -195
-1.14 0 1 -207
-1.07 0 1 -206
-1.02 0 1 -208
-0.98 0 1 -215
-0.96 0 1 -182
-0.94 0 1 -200
-0.93 0 1 -181
-0.91 0 1 -199
-0.88 0 1 -205
-0.83 0 1 -206
-0.73 0 1 -201
-0.57 0 1 -195
-0.35 0 1 -186
-0.06 0 1 -196
0.31 0 1 -203
0.75 0 1 -183
1.24 0 1 -195
1.76 0 1 -180
2.29 0 1 -182
2.78 0 1 -201
3.21 0 1 -202
3.54 0 1 -222
3.72 1 0 -211
3.75 1 0 -209
3.60 1 0 -191
3.28 1 0 -189
2.79 1 0 -177
2.16 1 0 -219
1.43 1 0 -169
0.64 1 0 -205
-0.16 1 0 -188
-0.91 1 0 -217
-1.57 1 0 -192
-2.09 1 0 -197
-2.45 1 0 -228
-2.63 1 0 -239
-2.62 1 0 -237
-2.43 1 0 -268
-2.08 1 0 -224
-1.59 1 0 -241
-1.02 1 0 -226
-0.39 1 0 -255
0.25 1 0 -285
0.85 1 0 -220
1.38 1 0 -203
1.81 1 0 -227
2.12 1 0 -129
2.30 0 1 -14
2.34 0 1 1
2.24 0 1 -80
2.04 0 1 -243
1.73 0 1 -206
1.36 0 1 -303
0.94 0 1 -309
0.51 0 1 -298
0.09 0 1 -321
-0.30 0 1 -237
-0.63 0 1 -239
-0.91 0 1 -272
-1.12 0 1 -244
-1.25 0 1 -242
-1.33 0 1 -202
-1.35 0 1 -287
-1.33 0 1 -189
-1.27 0 1 -219
-1.20 0 1 -205
-1.13 0 1 -241
-1.06 0 1 -269
-1.00 0 1 -202
-0.96 0 1 -207
-0.93 0 1 -223
-0.92 0 1 -186
-0.91 0 1 -230
-0.91 0 1 -229
-0.91 0 1 -175
-0.90 0 1 -176
-0.89 0 1 -210
-0.86 0 1 -201
-0.83 0 1 -156
-0.80 0 1 -173
-0.77 0 1 -225
-0.75 0 1 -205
-0.75 0 1 -249
-0.77 0 1 -207
-0.82 0 1 -189
-0.89 0 1 -197
-0.97 0 1 -191
-1.07 0 1 -175
-1.17 0 1 -201
-1.24 0 1 -178
-1.26 0 1 -193
-1.22 0 1 -181
-1.08 0 1 -182
-0.85 0 1 -191
-0.50 0 1 -217
-0.04 0 1 -198
0.53 0 1 -217
1.17 0 1 -210
1.86 0 1 -207
2.55 0 1 -190
3.21 0 1 -211
3.77 1 0 -194
4.19 1 0 -200
4.43 1 0 -211
4.47 1 0 -215
4.29 1 0 -176
3.88 1 0 -182
3.28 1 0 -205
2.51 1 0 -174
1.61 1 0 -192
0.66 1 0 -173
-0.30 1 0 -188
-1.21 1 0 -251
-2.00 1 0 -196
-2.63 1 0 -228
-3.06 1 0 -229
-3.29 1 0 -267
-3.29 1 0 -291
-3.08 1 0 -233
-2.69 1 0 -237
-2.15 1 0 -247
-1.50 1 0 -245
-0.78 1 0 -214
-0.06 1 0 -186
0.64 1 0 -243
1.26 1 0 -241
1.77 1 0 -149
2.15 1 0 -21
2.38 1 0 22
2.47 0 1 16
2.41 0 1 47
2.23 0 1 34
1.93 0 1 -67
1.56 0 1 -146
1.14 0 1 -325
0.69 0 1 -297
0.25 0 1 -213
-0.17 0 1 -249
-0.54 0 1 -267
-0.85 0 1 -204
-1.09 0 1 -201
-1.27 0 1 -262
-1.38 0 1 -250
-1.44 0 1 -235
-1.45 0 1 -284
-1.94 0 1 -327
-1.94 0 1 -193
-1.63 0 1 -232
-1.63 0 1 -304
-1.30 0 1 -283
-1.30 0 1 -289
-0.97 0 1 -296
-0.97 0 1 -241
-0.66 0 1 -215
-0.66 0 1 -242
-0.39 0 1 -243
-0.39 0 1 -185
-0.18 0 1 -223
-0.18 0 1 -254
-0.05 0 1 -244
-0.05 0 1 -217
0.02 0 1 -205
0.02 0 1 -238
0.02 0 1 -187
0.02 0 1 -192
-0.03 0 1 -219
-0.03 0 1 -211
-0.11 0 1 -197
-0.11 0 1 -168
-0.20 0 1 -175
-0.20 0 1 -181
-0.28 0 1 -168
-0.28 0 1 -179
-0.30 0 1 -198
-0.30 0 1 -236
-0.26 0 1 -182
-0.26 0 1 -187
-0.12 0 1 -208
-0.12 0 1 -197
0.13 0 1 -149
0.13 0 1 -172
0.49 0 1 -178
0.49 0 1 -181
0.95 0 1 -166
0.95 0 1 -172
1.48 0 1 -194
1.48 0 1 -165
2.07 0 1 -161
2.07 0 1 -165
2.67 0 1 -163
2.67 0 1 -167
3.23 0 1 -171
3.23 0 1 -191
3.70 0 1 -199
3.70 0 1 -174
4.04 1 0 -165
4.04 1 0 -166
4.21 1 0 -181
4.21 1 0 -175
4.19 1 0 -138
4.19 1 0 -147
3.97 1 0 -162
3.97 1 0 -185
3.54 1 0 -178
3.54 1 0 -213
2.93 1 0 -185
2.93 1 0 -182
2.17 1 0 -189
2.17 1 0 -209
1.31 1 0 -234
1.31 1 0 -190
0.41 1 0 -205
0.41 1 0 -182
-0.49 1 0 -223
-0.49 1 0 -179
-1.31 1 0 -219
-1.31 1 0 -214
-2.01 1 0 -294
-2.01 1 0 -224
-2.56 1 0 -176
-2.56 1 0 -216
-2.91 1 0 -73
-2.91 1 0 -6
-3.07 1 0 7
-3.07 1 0 37
-3.02 1 0 57
-3.02 1 0 78
-2.79 1 0 64
-2.79 1 0 15
-2.40 1 0 -32
-2.40 1 0 -179
-1.89 1 0 -161
-1.89 1 0 -60
-1.29 1 0 -30
-1.29 1 0 -16
-0.65 1 0 58
-0.65 1 0 66
-0.02 1 0 34
-0.02 1 0 -38
0.57 1 0 -184
0.57 1 0 -188
1.07 1 0 -208
1.07 1 0 -154
1.46 1 0 -1
1.46 1 0 3
1.73 1 0 -2
1.73 1 0 55
1.86 1 0 72
1.86 1 0 75
1.85 0 1 72
1.85 0 1 45
1.71 0 1 -30
1.71 0 1 -86
1.46 0 1 -175
1.46 0 1 -91
1.12 0 1 -277
1.12 0 1 -337
0.71 0 1 -136
0.71 0 1 -151
0.25 0 1 -167
0.25 0 1 -173
-0.22 0 1 -151
-0.22 0 1 -244
-0.67 0 1 -260
-0.67 0 1 -228
-1.10 0 1 -222
-1.10 0 1 -231
-1.47 0 1 -234
-1.47 0 1 -312
-1.78 0 1 -270
-1.78 0 1 -220
-2.01 0 1 -230
-2.01 0 1 -157
-2.15 0 1 -221
-2.15 0 1 -279
-2.21 0 1 -294
-2.21 0 1 -296
-2.19 0 1 -270
-2.19 0 1 -286
-2.09 0 1 -258
-2.09 0 1 -229
-1.93 0 1 -221
-1.93 0 1 -211
-1.73 0 1 -258
-1.73 0 1 -243
-1.48 0 1 -278
-1.48 0 1 -239
-1.23 0 1 -233
-1.23 0 1 -229
-0.98 0 1 -240
-0.98 0 1 -239
-0.75 0 1 -224
-0.75 0 1 -211
-0.57 0 1 -194
-0.57 0 1 -202
-0.44 0 1 -232
-0.44 0 1 -222
-0.37 0 1 -215
-0.37 0 1 -219
-0.38 0 1 -248
-0.38 0 1 -241
-0.46 0 1 -234
-0.46 0 1 -225
-0.61 0 1 -228
-0.61 0 1 -252
-0.81 0 1 -191
-0.81 0 1 -263
-1.04 0 1 -249
-1.04 0 1 -215
-1.28 0 1 -226
-1.28 0 1 -232
-1.50 0 1 -253
-1.50 0 1 -222
-1.66 0 1 -301
-1.66 0 1 -261
-1.73 0 1 -286
-1.73 0 1 -287
-1.69 0 1 -295
-1.69 0 1 -297
-1.51 0 1 -308
-1.51 0 1 -301
-1.18 0 1 -259
-1.18 0 1 -312
-0.70 0 1 -291
-0.70 0 1 -310
-0.09 0 1 -279
-0.09 0 1 -289
0.64 0 1 -288
0.64 0 1 -274
1.44 0 1 -273
1.44 0 1 -251
2.25 0 1 -245
2.25 0 1 -252
3.04 0 1 -247
3.04 0 1 -248
3.73 1 0 -245
3.73 1 0 -237
4.28 1 0 -242
4.28 1 0 -258
4.64 1 0 -237
4.64 1 0 -210
4.78 1 0 -221
4.78 1 0 -216
4.67 1 0 -233
4.67 1 0 -248
4.32 1 0 -239
4.32 1 0 -220
3.76 1 0 -233
3.76 1 0 -314
3.01 1 0 -257
3.01 1 0 -293
2.13 1 0 -287
2.13 1 0 -312
1.19 1 0 -246
1.19 1 0 -265
0.23 1 0 -234
0.23 1 0 -365
-0.66 1 0 -212
-0.66 1 0 -260
-1.43 1 0 -206
-1.43 1 0 -236
-2.04 1 0 -177
-2.04 1 0 -74
-2.45 1 0 -13
-2.45 1 0 3
-2.63 1 0 48
-2.63 1 0 61
-2.60 1 0 43
-2.60 1 0 5
-2.36 1 0 -78
-2.36 1 0 -170
-1.93 1 0 -203
-1.93 1 0 -167
-1.37 1 0 -56
-1.37 1 0 12
-0.71 1 0 29
-0.71 1 0 37
-0.01 1 0 64
-0.01 1 0 75
0.69 1 0 65
0.69 1 0 23
1.33 1 0 -27
1.33 1 0 -90
1.88 1 0 -130
1.88 1 0 -96
2.29 0 1 -32
2.29 0 1 15
2.56 0 1 -16
2.56 0 1 -190
2.67 0 1 -251
2.67 0 1 -179
2.62 0 1 -229
2.62 0 1 -213
2.43 0 1 -106
2.43 0 1 -227
2.11 0 1 -175
2.11 0 1 -181
1.69 0 1 -183
1.69 0 1 -202
1.19 0 1 -181
1.19 0 1 -184
0.66 0 1 -171
0.66 0 1 -265
0.12 0 1 -297
0.12 0 1 -263
-0.40 0 1 -323
-0.40 0 1 -189
-0.88 0 1 -251
-0.88 0 1 -302
-1.29 0 1 -257
-1.29 0 1 -279
-1.63 0 1 -257
-1.63 0 1 -277
-1.89 0 1 -255
-1.89 0 1 -276
-2.07 0 1 -246
-2.07 0 1 -288
-2.16 0 1 -296
-2.16 0 1 -319
-2.19 0 1 -315
-2.19 0 1 -253
-2.15 0 1 -256
-2.15 0 1 -297
-2.06 0 1 -273
-2.06 0 1 -265
-1.94 0 1 -245
-1.94 0 1 -319
-1.79 0 1 -302
-1.79 0 1 -246
-1.62 0 1 -275
-1.62 0 1 -229
-1.44 0 1 -293
-1.44 0 1 -244
-1.27 0 1 -260
-1.27 0 1 -235
-1.10 0 1 -250
-1.10 0 1 -285
-0.94 0 1 -201
-0.94 0 1 -222
-0.81 0 1 -262
-0.81 0 1 -275
-0.70 0 1 -263
-0.70 0 1 -243
-0.62 0 1 -245
-0.62 0 1 -209
-0.57 0 1 -201
-0.57 0 1 -153
-0.57 0 1 -142
-0.57 0 1 -142
-0.61 0 1 -142
-0.61 0 1 -144
-0.69 0 1 -146
-0.69 0 1 -148
-0.81 0 1 -149
-0.81 0 1 -158
-0.97 0 1 -151
-0.97 0 1 -151
-1.15 0 1 -156
-1.15 0 1 -179
-1.34 0 1 -163
-1.34 0 1 -170
-1.51 0 1 -172
-1.51 0 1 -165
-1.64 0 1 -183
-1.64 0 1 -170
-1.72 0 1 -171
-1.72 0 1 -163
-1.71 0 1 -176
-1.71 0 1 -173
-1.59 0 1 -179
-1.59 0 1 -173
-1.36 0 1 -169
-1.36 0 1 -159
-0.99 0 1 -165
-0.99 0 1 -161
-0.50 0 1 -161
-0.50 0 1 -282
0.10 0 1 -163
0.10 0 1 -214
0.78 0 1 -167
0.78 0 1 -171
1.51 0 1 -171
1.51 0 1 -170
2.25 0 1 -145
2.25 0 1 -165
2.94 0 1 -137
2.94 0 1 -139
3.53 0 1 -163
3.53 0 1 -163
3.98 1 0 -173
3.98 1 0 -177
4.24 1 0 -187
4.24 1 0 -186
4.29 1 0 -193
4.29 1 0 -189
4.12 1 0 -152
4.12 1 0 -176
3.73 1 0 -176
3.73 1 0 -192
3.14 1 0 -182
3.14 1 0 -144
2.40 1 0 -145
2.40 1 0 -148
1.54 1 0 -155
1.54 1 0 -231
0.64 1 0 -260
0.64 1 0 -284
-0.26 1 0 -203
-0.26 1 0 -249
-1.08 1 0 -201
-1.08 1 0 -269
-1.78 1 0 -260
-1.78 1 0 -231
-2.32 1 0 -208
-2.32 1 0 -100
-2.66 1 0 -165
-2.66 1 0 -179
-2.79 1 0 -106
-2.79 1 0 -22
-2.71 1 0 3
-2.71 1 0 38
-2.43 1 0 63
-2.43 1 0 72
-1.98 1 0 45
-1.98 1 0 5
-1.39 1 0 -138
-1.39 1 0 -252
-0.72 1 0 -206
-0.72 1 0 -181
-0.00 1 0 -36
-0.00 1 0 -14
0.71 1 0 17
0.71 1 0 53
1.38 1 0 68
1.38 1 0 76
1.96 1 0 63
1.96 1 0 38
2.42 0 1 -17
2.42 0 1 -77
2.74 0 1 -208
2.74 0 1 -320
2.92 0 1 -224
2.92 0 1 -328
2.94 0 1 -293
2.94 0 1 -225
2.83 0 1 -260
2.83 0 1 -255
2.58 0 1 -219
2.58 0 1 -151
2.24 0 1 -166
2.24 0 1 -200
1.81 0 1 -217
1.81 0 1 -208
1.34 0 1 -283
1.34 0 1 -288
0.84 0 1 -231
0.84 0 1 -344
0.34 0 1 -287
0.34 0 1 -309
-0.13 0 1 -224
-0.13 0 1 -302
-0.56 0 1 -288
-0.56 0 1 -258
-0.94 0 1 -226
-0.94 0 1 -235
-1.25 0 1 -270
-1.25 0 1 -231
-1.50 0 1 -248
-1.50 0 1 -272
-1.69 0 1 -226
-1.69 0 1 -197
-1.82 0 1 -219
-1.82 0 1 -225
-1.90 0 1 -200
-1.90 0 1 -230
-1.94 0 1 -245
-1.94 0 1 -251
-1.94 0 1 -224
-1.94 0 1 -217
-1.92 0 1 -209
-1.92 0 1 -216
-1.88 0 1 -230
-1.88 0 1 -241
-1.82 0 1 -228
-1.82 0 1 -247
-1.76 0 1 -232
-1.76 0 1 -204
-1.69 0 1 -217
-1.69 0 1 -206
-1.61 0 1 -207
-1.61 0 1 -234
-1.54 0 1 -212
-1.54 0 1 -215
-1.45 0 1 -236
-1.45 0 1 -201
-1.37 0 1 -198
-1.37 0 1 -215
-1.29 0 1 -237
-1.29 0 1 -250
-1.21 0 1 -206
-1.21 0 1 -212
-1.14 0 1 -221
-1.14 0 1 -229
-1.07 0 1 -221
-1.07 0 1 -200
-1.02 0 1 -206
-1.02 0 1 -223
-0.98 0 1 -191
-0.98 0 1 -250
-0.96 0 1 -240
-0.96 0 1 -227
-0.94 0 1 -206
-0.94 0 1 -248
-0.93 0 1 -237
-0.93 0 1 -190
-0.91 0 1 -201
-0.91 0 1 -204
-0.88 0 1 -198
-0.88 0 1 -219
-0.83 0 1 -216
-0.83 0 1 -213
-0.73 0 1 -228
-0.73 0 1 -247
-0.57 0 1 -219
-0.57 0 1 -191
-0.35 0 1 -182
-0.35 0 1 -189
-0.06 0 1 -181
-0.06 0 1 -187
0.31 0 1 -182
0.31 0 1 -220
0.75 0 1 -209
0.75 0 1 -208
1.24 0 1 -212
1.24 0 1 -211
1.76 0 1 -166
1.76 0 1 -165
2.29 0 1 -163
2.29 0 1 -164
2.78 0 1 -170
2.78 0 1 -169
3.21 0 1 -172
3.21 0 1 -186
3.54 0 1 -178
3.54 0 1 -185
3.72 1 0 -167
3.72 1 0 -191
3.75 1 0 -191
3.75 1 0 -183
3.60 1 0 -181
3.60 1 0 -181
3.28 1 0 -189
3.28 1 0 -187
2.79 1 0 -188
2.79 1 0 -195
2.16 1 0 -195
2.16 1 0 -192
1.43 1 0 -191
1.43 1 0 -175
0.64 1 0 -201
0.64 1 0 -173
-0.16 1 0 -273
-0.16 1 0 -221
-0.91 1 0 -305
-0.91 1 0 -277
-1.57 1 0 -160
-1.57 1 0 -148
-2.09 1 0 -213
-2.09 1 0 -268
-2.45 1 0 -294
-2.45 1 0 -188
-2.63 1 0 -200
-2.63 1 0 -174
-2.62 1 0 -212
-2.62 1 0 -114
-2.43 1 0 -105
-2.43 1 0 14
-2.08 1 0 41
-2.08 1 0 55
-1.59 1 0 23
-1.59 1 0 -127
-1.02 1 0 -119
-1.02 1 0 -50
-0.39 1 0 -22
-0.39 1 0 22
0.25 1 0 35
0.25 1 0 63
0.85 1 0 42
0.85 1 0 -26
1.38 1 0 -109
1.38 1 0 -154
1.81 1 0 -179
1.81 1 0 -94
2.12 0 1 -60
2.12 0 1 -3
2.30 0 1 -37
2.30 0 1 -241
2.34 0 1 -292
2.34 0 1 -276
2.24 0 1 -195
2.24 0 1 -129
2.04 0 1 -154
2.04 0 1 -136
1.73 0 1 -134
1.73 0 1 -221
1.36 0 1 -216
1.36 0 1 -240
0.94 0 1 -260
0.94 0 1 -227
0.51 0 1 -276
0.51 0 1 -299
0.09 0 1 -193
0.09 0 1 -210
-0.30 0 1 -301
-0.30 0 1 -329
-0.63 0 1 -324
-0.63 0 1 -306
-0.91 0 1 -271
-0.91 0 1 -296
-1.12 0 1 -313
-1.12 0 1 -299
-1.25 0 1 -265
-1.25 0 1 -255
-1.33 0 1 -277
-1.33 0 1 -280
-1.35 0 1 -263
-1.35 0 1 -263
-1.33 0 1 -248
-1.33 0 1 -265
-1.27 0 1 -284
-1.27 0 1 -310
-1.20 0 1 -286
-1.20 0 1 -302
-1.13 0 1 -304
-1.13 0 1 -247
-1.06 0 1 -317
-1.06 0 1 -261
-1.00 0 1 -255
-1.00 0 1 -256
-0.96 0 1 -242
-0.96 0 1 -271
-0.93 0 1 -280
-0.93 0 1 -245
-0.92 0 1 -237
-0.92 0 1 -259
-0.91 0 1 -244
-0.91 0 1 -253
-0.91 0 1 -269
-0.91 0 1 -233
-0.91 0 1 -259
-0.91 0 1 -239
-0.90 0 1 -247
-0.90 0 1 -250
-0.89 0 1 -270
-0.89 0 1 -228
-0.86 0 1 -254
-0.86 0 1 -251
-0.83 0 1 -260
-0.83 0 1 -281
-0.80 0 1 -260
-0.80 0 1 -239
-0.77 0 1 -245
-0.77 0 1 -233
-0.75 0 1 -255
-0.75 0 1 -244
-0.75 0 1 -260
-0.75 0 1 -262
-0.77 0 1 -230
-0.77 0 1 -260
-0.82 0 1 -208
-0.82 0 1 -251
-0.89 0 1 -253
-0.89 0 1 -272
-0.97 0 1 -204
-0.97 0 1 -205
-1.07 0 1 -236
-1.07 0 1 -295
-1.17 0 1 -267
-1.17 0 1 -250
-1.24 0 1 -224
-1.24 0 1 -230
-1.26 0 1 -234
-1.26 0 1 -194
-1.22 0 1 -248
-1.22 0 1 -262
-1.08 0 1 -243
-1.08 0 1 -243
-0.85 0 1 -231
-0.85 0 1 -212
-0.50 0 1 -214
-0.50 0 1 -290
-0.04 0 1 -252
-0.04 0 1 -264
0.53 0 1 -276
0.53 0 1 -267
1.17 0 1 -241
1.17 0 1 -243
1.86 0 1 -241
1.86 0 1 -220
2.55 0 1 -235
2.55 0 1 -242
3.21 0 1 -169
3.21 0 1 -182
3.77 1 0 -177
3.77 1 0 -189
4.19 1 0 -191
4.19 1 0 -206
4.43 1 0 -222
4.43 1 0 -234
4.47 1 0 -243
4.47 1 0 -231
4.29 1 0 -257
4.29 1 0 -235
3.88 1 0 -249
3.88 1 0 -245
3.28 1 0 -252
3.28 1 0 -252
2.51 1 0 -236
2.51 1 0 -251
1.61 1 0 -263
1.61 1 0 -244
0.66 1 0 -248
0.66 1 0 -302
-0.30 1 0 -249
-0.30 1 0 -252
-1.21 1 0 -247
-1.21 1 0 -278
-2.00 1 0 -269
-2.00 1 0 -187
-2.63 1 0 -184
-2.63 1 0 -240
-3.06 1 0 -171
-3.06 1 0 -240
-3.29 1 0 -167
-3.29 1 0 -24
-3.29 1 0 -1
-3.29 1 0 25
-3.08 1 0 44
-3.08 1 0 58
-2.69 1 0 38
-2.69 1 0 -48
-2.15 1 0 -113
-2.15 1 0 -283
-1.50 1 0 -178
-1.50 1 0 -164
-0.78 1 0 -59
-0.78 1 0 -96
-0.06 1 0 -6
-0.06 1 0 12
0.64 1 0 47
0.64 1 0 60
1.26 1 0 49
1.26 1 0 -25
1.77 1 0 -148
1.77 1 0 -253
2.15 1 0 -125
2.15 1 0 -215
2.38 1 0 -82
2.38 1 0 -72
2.47 0 1 10
2.47 0 1 24
2.41 0 1 -23
2.41 0 1 -175
2.23 0 1 -238
2.23 0 1 -330
1.93 0 1 -323
1.93 0 1 -248
1.56 0 1 -178
1.56 0 1 -252
1.14 0 1 -242
1.14 0 1 -255
0.69 0 1 -197
0.69 0 1 -247
0.25 0 1 -265
0.25 0 1 -298
-0.17 0 1 -211
-0.17 0 1 -293
-0.54 0 1 -397
-0.54 0 1 -290
-0.85 0 1 -167
-0.85 0 1 -287
-1.09 0 1 -375
-1.09 0 1 -252
-1.27 0 1 -239
-1.27 0 1 -205
-1.38 0 1 -222
-1.38 0 1 -257
-1.44 0 1 -276
-1.44 0 1 -229
-1.45 0 1 -241
-1.45 0 1 -212
5 Loops Complete both delayed and normal
-1.94 0 1 -251
-1.63 0 1 -257
-1.30 0 1 -256
-0.97 0 1 -248
-0.66 0 1 -267
-0.39 0 1 -245
-0.18 0 1 -266
-0.05 0 1 -256
0.02 0 1 -266
0.02 0 1 -270
-0.03 0 1 -288
-0.11 0 1 -286
-0.20 0 1 -223
-0.28 0 1 -279
-0.30 0 1 -243
-0.26 0 1 -274
-0.12 0 1 -281
0.13 0 1 -223
0.49 0 1 -215
0.95 0 1 -217
1.48 0 1 -210
2.07 0 1 -211
2.67 0 1 -221
3.23 0 1 -237
3.70 0 1 -236
4.04 1 0 -227
4.21 1 0 -256
4.19 1 0 -216
3.97 1 0 -221
3.54 1 0 -195
2.93 1 0 -189
2.17 1 0 -213
1.31 1 0 -219
0.41 1 0 -184
-0.49 1 0 -228
-1.31 1 0 -234
-2.01 1 0 -244
-2.56 1 0 -260
-2.91 1 0 -212
-3.07 1 0 -256
-3.02 1 0 -302
-2.79 1 0 -268
-2.40 1 0 -245
-1.89 1 0 -287
-1.29 1 0 -220
-0.65 1 0 -174
-0.02 1 0 -182
0.57 1 0 -254
1.07 1 0 -264
1.46 1 0 -309
1.73 1 0 -237
1.86 1 0 -228
1.85 0 1 -255
1.71 0 1 -135
1.46 0 1 -341
1.12 0 1 -328
0.71 0 1 -296
0.25 0 1 -294
-0.22 0 1 -318
-0.67 0 1 -239
-1.10 0 1 -233
-1.47 0 1 -291
-1.78 0 1 -257
-2.01 0 1 -277
-2.15 0 1 -275
-2.21 0 1 -209
-2.19 0 1 -282
-2.09 0 1 -295
-1.93 0 1 -264
-1.73 0 1 -255
-1.48 0 1 -330
-1.23 0 1 -315
-0.98 0 1 -301
-0.75 0 1 -272
-0.57 0 1 -305
-0.44 0 1 -268
-0.37 0 1 -258
-0.38 0 1 -272
-0.46 0 1 -270
-0.61 0 1 -301
-0.81 0 1 -269
-1.04 0 1 -251
-1.28 0 1 -254
-1.50 0 1 -254
-1.66 0 1 -233
-1.73 0 1 -285
-1.69 0 1 -242
-1.51 0 1 -260
-1.18 0 1 -263
-0.70 0 1 -264
-0.09 0 1 -251
0.64 0 1 -287
1.44 0 1 -243
2.25 0 1 -261
3.04 0 1 -248
3.73 1 0 -317
4.28 1 0 -269
4.64 1 0 -309
4.78 1 0 -249
4.67 1 0 -252
4.32 1 0 -263
3.76 1 0 -279
3.01 1 0 -279
2.13 1 0 -291
1.19 1 0 -269
0.23 1 0 -294
-0.66 1 0 -246
-1.43 1 0 -262
-2.04 1 0 -254
-2.45 1 0 -248
-2.63 1 0 -361
-2.60 1 0 -278
-2.36 1 0 -220
-1.93 1 0 -263
-1.37 1 0 -241
-0.71 1 0 -220
-0.01 1 0 -265
0.69 1 0 -278
1.33 1 0 -330
1.88 1 0 -295
2.29 0 1 -262
2.56 0 1 -216
2.67 0 1 -286
2.62 0 1 -237
2.43 0 1 -288
2.11 0 1 -225
1.69 0 1 -228
1.19 0 1 -263
0.66 0 1 -301
0.12 0 1 -299
-0.40 0 1 -261
-0.88 0 1 -244
-1.29 0 1 -191
-1.63 0 1 -197
-1.89 0 1 -225
-2.07 0 1 -275
-2.16 0 1 -293
-2.19 0 1 -244
-2.15 0 1 -241
-2.06 0 1 -293
-1.94 0 1 -265
-1.79 0 1 -254
-1.62 0 1 -251
-1.44 0 1 -227
-1.27 0 1 -204
-1.10 0 1 -239
-0.94 0 1 -245
-0.81 0 1 -221
-0.70 0 1 -290
-0.62 0 1 -263
-0.57 0 1 -208
-0.57 0 1 -215
-0.61 0 1 -246
-0.69 0 1 -207
-0.81 0 1 -222
-0.97 0 1 -258
-1.15 0 1 -262
-1.34 0 1 -208
-1.51 0 1 -233
-1.64 0 1 -226
-1.72 0 1 -247
-1.71 0 1 -208
-1.59 0 1 -262
-1.36 0 1 -240
-0.99 0 1 -236
-0.50 0 1 -242
0.10 0 1 -247
0.78 0 1 -250
1.51 0 1 -229
2.25 0 1 -228
2.94 0 1 -263
3.53 0 1 -278
3.98 1 0 -234
4.24 1 0 -244
4.29 1 0 -249
4.12 1 0 -227
3.73 1 0 -233
3.14 1 0 -244
2.40 1 0 -257
1.54 1 0 -251
0.64 1 0 -252
-0.26 1 0 -238
-1.08 1 0 -224
-1.78 1 0 -223
-2.32 1 0 -217
-2.66 1 0 -162
-2.79 1 0 -242
-2.71 1 0 -225
-2.43 1 0 -182
-1.98 1 0 -267
-1.39 1 0 -231
-0.72 1 0 -253
-0.00 1 0 -261
0.71 1 0 -266
1.38 1 0 -261
1.96 1 0 -277
2.42 0 1 -245
2.74 0 1 -229
2.92 0 1 -230
2.94 0 1 -264
2.83 0 1 -224
2.58 0 1 -198
2.24 0 1 -245
1.81 0 1 -241
1.34 0 1 -183
0.84 0 1 -250
0.34 0 1 -252
-0.13 0 1 -307
-0.56 0 1 -215
-0.94 0 1 -284
-1.25 0 1 -294
-1.50 0 1 -282
-1.69 0 1 -251
-1.82 0 1 -253
-1.90 0 1 -264
-1.94 0 1 -265
-1.94 0 1 -251
-1.92 0 1 -245
-1.88 0 1 -233
-1.82 0 1 -264
-1.76 0 1 -248
-1.69 0 1 -227
-1.61 0 1 -240
-1.54 0 1 -238
-1.45 0 1 -230
-1.37 0 1 -220
-1.29 0 1 -271
-1.21 0 1 -227
-1.14 0 1 -225
-1.07 0 1 -220
-1.02 0 1 -231
-0.98 0 1 -224
-0.96 0 1 -250
-0.94 0 1 -283
-0.93 0 1 -262
-0.91 0 1 -257
-0.88 0 1 -244
-0.83 0 1 -255
-0.73 0 1 -235
-0.57 0 1 -262
-0.35 0 1 -252
-0.06 0 1 -255
0.31 0 1 -239
0.75 0 1 -217
1.24 0 1 -226
1.76 0 1 -233
2.29 0 1 -240
2.78 0 1 -282
3.21 0 1 -216
3.54 0 1 -269
3.72 1 0 -264
3.75 1 0 -261
3.60 1 0 -278
3.28 1 0 -265
2.79 1 0 -268
2.16 1 0 -249
1.43 1 0 -261
0.64 1 0 -276
-0.16 1 0 -274
-0.91 1 0 -273
-1.57 1 0 -283
-2.09 1 0 -271
-2.45 1 0 -274
-2.63 1 0 -253
-2.62 1 0 -262
-2.43 1 0 -299
-2.08 1 0 -231
-1.59 1 0 -259
-1.02 1 0 -285
-0.39 1 0 -182
0.25 1 0 -181
0.85 1 0 -231
1.38 1 0 -291
1.81 1 0 -312
2.12 1 0 -268
2.30 0 1 -285
2.34 0 1 -240
2.24 0 1 -222
2.04 0 1 -324
1.73 0 1 -249
1.36 0 1 -281
0.94 0 1 -306
0.51 0 1 -303
0.09 0 1 -277
-0.30 0 1 -274
-0.63 0 1 -310
-0.91 0 1 -228
-1.12 0 1 -229
-1.25 0 1 -239
-1.33 0 1 -258
-1.35 0 1 -238
-1.33 0 1 -279
-1.27 0 1 -290
-1.20 0 1 -332
-1.13 0 1 -267
-1.06 0 1 -283
-1.00 0 1 -265
-0.96 0 1 -256
-0.93 0 1 -282
-0.92 0 1 -286
-0.91 0 1 -259
-0.91 0 1 -254
-0.91 0 1 -270
-0.90 0 1 -243
-0.89 0 1 -272
-0.86 0 1 -250
-0.83 0 1 -258
-0.80 0 1 -255
-0.77 0 1 -259
-0.75 0 1 -254
-0.75 0 1 -267
-0.77 0 1 -265
-0.82 0 1 -261
-0.89 0 1 -257
-0.97 0 1 -268
-1.07 0 1 -227
-1.17 0 1 -248
-1.24 0 1 -242
-1.26 0 1 -250
-1.22 0 1 -263
-1.08 0 1 -268
-0.85 0 1 -252
-0.50 0 1 -245
-0.04 0 1 -282
0.53 0 1 -231
1.17 0 1 -223
1.86 0 1 -263
2.55 0 1 -282
3.21 0 1 -265
3.77 1 0 -277
4.19 1 0 -248
4.43 1 0 -250
4.47 1 0 -256
4.29 1 0 -261
3.88 1 0 -247
3.28 1 0 -240
2.51 1 0 -268
1.61 1 0 -243
0.66 1 0 -220
-0.30 1 0 -255
-1.21 1 0 -251
-2.00 1 0 -255
-2.63 1 0 -280
-3.06 1 0 -279
-3.29 1 0 -245
-3.29 1 0 -251
-3.08 1 0 -302
-2.69 1 0 -311
-2.15 1 0 -236
-1.50 1 0 -248
-0.78 1 0 -244
-0.06 1 0 -265
0.64 1 0 -265
1.26 1 0 -252
1.77 1 0 -295
2.15 1 0 -250
2.38 1 0 -215
2.47 0 1 -222
2.41 0 1 -67
2.23 0 1 -214
1.93 0 1 -292
1.56 0 1 -232
1.14 0 1 -309
0.69 0 1 -227
0.25 0 1 -263
-0.17 0 1 -257
-0.54 0 1 -300
-0.85 0 1 -303
-1.09 0 1 -247
-1.27 0 1 -246
-1.38 0 1 -311
-1.44 0 1 -358
-1.45 0 1 -238
-1.94 0 1 -161
-1.94 0 1 -253
-1.63 0 1 -192
-1.63 0 1 -217
-1.30 0 1 -254
-1.30 0 1 -313
-0.97 0 1 -247
-0.97 0 1 -270
-0.66 0 1 -269
-0.66 0 1 -272
-0.39 0 1 -239
-0.39 0 1 -252
-0.18 0 1 -204
-0.18 0 1 -208
-0.05 0 1 -208
-0.05 0 1 -228
0.02 0 1 -232
0.02 0 1 -278
0.02 0 1 -256
0.02 0 1 -255
-0.03 0 1 -277
-0.03 0 1 -299
-0.11 0 1 -264
-0.11 0 1 -291
-0.20 0 1 -242
-0.20 0 1 -233
-0.28 0 1 -253
-0.28 0 1 -228
-0.30 0 1 -227
-0.30 0 1 -216
-0.26 0 1 -204
-0.26 0 1 -248
-0.12 0 1 -239
-0.12 0 1 -209
0.13 0 1 -220
0.13 0 1 -235
0.49 0 1 -208
0.49 0 1 -226
0.95 0 1 -222
0.95 0 1 -213
1.48 0 1 -185
1.48 0 1 -230
2.07 0 1 -231
2.07 0 1 -218
2.67 0 1 -217
2.67 0 1 -180
3.23 0 1 -193
3.23 0 1 -206
3.70 0 1 -225
3.70 0 1 -215
4.04 1 0 -228
4.04 1 0 -226
4.21 1 0 -214
4.21 1 0 -205
4.19 1 0 -201
4.19 1 0 -201
3.97 1 0 -202
3.97 1 0 -210
3.54 1 0 -219
3.54 1 0 -209
2.93 1 0 -233
2.93 1 0 -300
2.17 1 0 -225
2.17 1 0 -235
1.31 1 0 -181
1.31 1 0 -256
0.41 1 0 -204
0.41 1 0 -217
-0.49 1 0 -178
-0.49 1 0 -237
-1.31 1 0 -211
-1.31 1 0 -192
-2.01 1 0 -166
-2.01 1 0 -237
-2.56 1 0 -272
-2.56 1 0 -331
-2.91 1 0 -248
-2.91 1 0 -254
-3.07 1 0 -242
-3.07 1 0 -201
-3.02 1 0 -149
-3.02 1 0 -2
-2.79 1 0 20
-2.79 1 0 54
-2.40 1 0 72
-2.40 1 0 72
-1.89 1 0 61
-1.89 1 0 -7
-1.29 1 0 -122
-1.29 1 0 -165
-0.65 1 0 -172
-0.65 1 0 -109
-0.02 1 0 -41
-0.02 1 0 -31
0.57 1 0 30
0.57 1 0 49
1.07 1 0 30
1.07 1 0 -115
1.46 1 0 -210
1.46 1 0 -200
1.73 1 0 -264
1.73 1 0 -179
1.86 1 0 -183
1.86 1 0 -56
1.85 0 1 -25
1.85 0 1 15
1.71 0 1 -37
1.71 0 1 -160
1.46 0 1 -201
1.46 0 1 -393
1.12 0 1 -343
1.12 0 1 -232
0.71 0 1 -163
0.71 0 1 -285
0.25 0 1 -259
0.25 0 1 -269
-0.22 0 1 -233
-0.22 0 1 -244
-0.67 0 1 -210
-0.67 0 1 -308
-1.10 0 1 -300
-1.10 0 1 -287
-1.47 0 1 -313
-1.47 0 1 -207
-1.78 0 1 -259
-1.78 0 1 -210
-2.01 0 1 -242
-2.01 0 1 -309
-2.15 0 1 -334
-2.15 0 1 -280
-2.21 0 1 -264
-2.21 0 1 -243
-2.19 0 1 -237
-2.19 0 1 -232
-2.09 0 1 -254
-2.09 0 1 -248
-1.93 0 1 -257
-1.93 0 1 -282
-1.73 0 1 -282
-1.73 0 1 -251
-1.48 0 1 -246
-1.48 0 1 -260
-1.23 0 1 -287
-1.23 0 1 -282
-0.98 0 1 -289
-0.98 0 1 -306
-0.75 0 1 -277
-0.75 0 1 -283
-0.57 0 1 -246
-0.57 0 1 -244
-0.44 0 1 -272
-0.44 0 1 -303
-0.37 0 1 -271
-0.37 0 1 -255
-0.38 0 1 -237
-0.38 0 1 -329
-0.46 0 1 -260
-0.46 0 1 -237
-0.61 0 1 -251
-0.61 0 1 -249
-0.81 0 1 -282
-0.81 0 1 -284
-1.04 0 1 -296
-1.04 0 1 -225
-1.28 0 1 -230
-1.28 0 1 -250
-1.50 0 1 -242
-1.50 0 1 -254
-1.66 0 1 -240
-1.66 0 1 -235
-1.73 0 1 -242
-1.73 0 1 -241
-1.69 0 1 -259
-1.69 0 1 -265
-1.51 0 1 -222
-1.51 0 1 -237
-1.18 0 1 -245
-1.18 0 1 -261
-0.70 0 1 -238
-0.70 0 1 -241
-0.09 0 1 -228
-0.09 0 1 -243
0.64 0 1 -270
0.64 0 1 -233
1.44 0 1 -245
1.44 0 1 -269
2.25 0 1 -251
2.25 0 1 -236
3.04 0 1 -238
3.04 0 1 -241
3.73 1 0 -220
3.73 1 0 -234
4.28 1 0 -227
4.28 1 0 -233
4.64 1 0 -250
4.64 1 0 -256
4.78 1 0 -217
4.78 1 0 -228
4.67 1 0 -240
4.67 1 0 -242
4.32 1 0 -242
4.32 1 0 -258
3.76 1 0 -262
3.76 1 0 -259
3.01 1 0 -285
3.01 1 0 -267
2.13 1 0 -289
2.13 1 0 -263
1.19 1 0 -267
1.19 1 0 -327
0.23 1 0 -248
0.23 1 0 -260
-0.66 1 0 -293
-0.66 1 0 -290
-1.43 1 0 -282
-1.43 1 0 -320
-2.04 1 0 -160
-2.04 1 0 -353
-2.45 1 0 -203
-2.45 1 0 -256
-2.63 1 0 -212
-2.63 1 0 -27
-2.60 1 0 -19
-2.60 1 0 34
-2.36 1 0 61
-2.36 1 0 55
-1.93 1 0 45
-1.93 1 0 -72
-1.37 1 0 -203
-1.37 1 0 -215
-0.71 1 0 -222
-0.71 1 0 -131
-0.01 1 0 -43
-0.01 1 0 -76
0.69 1 0 -3
0.69 1 0 31
1.33 1 0 63
1.33 1 0 62
1.88 1 0 56
1.88 1 0 4
2.29 0 1 -84
2.29 0 1 -227
2.56 0 1 -254
2.56 0 1 -327
2.67 0 1 -336
2.67 0 1 -164
2.62 0 1 -322
2.62 0 1 -223
2.43 0 1 -162
2.43 0 1 -210
2.11 0 1 -225
2.11 0 1 -247
1.69 0 1 -232
1.69 0 1 -302
1.19 0 1 -277
1.19 0 1 -301
0.66 0 1 -311
0.66 0 1 -295
0.12 0 1 -251
0.12 0 1 -300
-0.40 0 1 -242
-0.40 0 1 -251
-0.88 0 1 -243
-0.88 0 1 -199
-1.29 0 1 -219
-1.29 0 1 -193
-1.63 0 1 -194
-1.63 0 1 -181
-1.89 0 1 -206
-1.89 0 1 -237
-2.07 0 1 -217
-2.07 0 1 -282
-2.16 0 1 -254
-2.16 0 1 -266
-2.19 0 1 -243
-2.19 0 1 -232
-2.15 0 1 -247
-2.15 0 1 -234
-2.06 0 1 -217
-2.06 0 1 -250
-1.94 0 1 -237
-1.94 0 1 -240
-1.79 0 1 -283
-1.79 0 1 -257
-1.62 0 1 -257
-1.62 0 1 -247
-1.44 0 1 -250
-1.44 0 1 -229
-1.27 0 1 -211
-1.27 0 1 -238
-1.10 0 1 -239
-1.10 0 1 -223
-0.94 0 1 -230
-0.94 0 1 -221
-0.81 0 1 -234
-0.81 0 1 -197
-0.70 0 1 -214
-0.70 0 1 -195
-0.62 0 1 -208
-0.62 0 1 -205
-0.57 0 1 -213
-0.57 0 1 -202
-0.57 0 1 -209
-0.57 0 1 -197
-0.61 0 1 -187
-0.61 0 1 -189
-0.69 0 1 -183
-0.69 0 1 -198
-0.81 0 1 -186
-0.81 0 1 -169
-0.97 0 1 -188
-0.97 0 1 -204
-1.15 0 1 -207
-1.15 0 1 -199
-1.34 0 1 -194
-1.34 0 1 -204
-1.51 0 1 -196
-1.51 0 1 -201
-1.64 0 1 -215
-1.64 0 1 -217
-1.72 0 1 -232
-1.72 0 1 -216
-1.71 0 1 -249
-1.71 0 1 -205
-1.59 0 1 -191
-1.59 0 1 -214
-1.36 0 1 -213
-1.36 0 1 -191
-0.99 0 1 -188
-0.99 0 1 -187
-0.50 0 1 -189
-0.50 0 1 -218
0.10 0 1 -218
0.10 0 1 -212
0.78 0 1 -188
0.78 0 1 -190
1.51 0 1 -174
1.51 0 1 -194
2.25 0 1 -167
2.25 0 1 -170
2.94 0 1 -181
2.94 0 1 -179
3.53 0 1 -179
3.53 0 1 -177
3.98 1 0 -172
3.98 1 0 -165
4.24 1 0 -178
4.24 1 0 -181
4.29 1 0 -188
4.29 1 0 -180
4.12 1 0 -175
4.12 1 0 -164
3.73 1 0 -170
3.73 1 0 -180
3.14 1 0 -200
3.14 1 0 -212
2.40 1 0 -206
2.40 1 0 -195
1.54 1 0 -169
1.54 1 0 -168
0.64 1 0 -180
0.64 1 0 -175
-0.26 1 0 -238
-0.26 1 0 -237
-1.08 1 0 -217
-1.08 1 0 -180
-1.78 1 0 -168
-1.78 1 0 -190
-2.32 1 0 -223
-2.32 1 0 -225
-2.66 1 0 -294
-2.66 1 0 -215
-2.79 1 0 -242
-2.79 1 0 -175
-2.71 1 0 -116
-2.71 1 0 -239
-2.43 1 0 -137
-2.43 1 0 -35
-1.98 1 0 -3
-1.98 1 0 22
-1.39 1 0 65
-1.39 1 0 74
-0.72 1 0 42
-0.72 1 0 -60
-0.00 1 0 -232
-0.00 1 0 -263
0.71 1 0 -237
0.71 1 0 -189
1.38 1 0 -103
1.38 1 0 -49
1.96 1 0 -14
1.96 1 0 14
2.42 0 1 40
2.42 0 1 57
2.74 0 1 42
2.74 0 1 -30
2.92 0 1 -149
2.92 0 1 -275
2.94 0 1 -321
2.94 0 1 -320
2.83 0 1 -303
2.83 0 1 -181
2.58 0 1 -229
2.58 0 1 -306
2.24 0 1 -148
2.24 0 1 -254
1.81 0 1 -287
1.81 0 1 -280
1.34 0 1 -294
1.34 0 1 -258
0.84 0 1 -319
0.84 0 1 -300
0.34 0 1 -233
0.34 0 1 -318
-0.13 0 1 -253
-0.13 0 1 -270
-0.56 0 1 -248
-0.56 0 1 -220
-0.94 0 1 -229
-0.94 0 1 -236
-1.25 0 1 -211
-1.25 0 1 -201
-1.50 0 1 -218
-1.50 0 1 -238
-1.69 0 1 -202
-1.69 0 1 -236
-1.82 0 1 -212
-1.82 0 1 -201
-1.90 0 1 -160
-1.90 0 1 -179
-1.94 0 1 -169
-1.94 0 1 -158
-1.94 0 1 -171
-1.94 0 1 -171
-1.92 0 1 -185
-1.92 0 1 -200
-1.88 0 1 -187
-1.88 0 1 -177
-1.82 0 1 -174
-1.82 0 1 -158
-1.76 0 1 -174
-1.76 0 1 -182
-1.69 0 1 -195
-1.69 0 1 -179
-1.61 0 1 -164
-1.61 0 1 -163
-1.54 0 1 -186
-1.54 0 1 -198
-1.45 0 1 -219
-1.45 0 1 -198
-1.37 0 1 -172
-1.37 0 1 -190
-1.29 0 1 -178
-1.29 0 1 -191
-1.21 0 1 -187
-1.21 0 1 -185
-1.14 0 1 -193
-1.14 0 1 -194
-1.07 0 1 -190
-1.07 0 1 -164
-1.02 0 1 -201
-1.02 0 1 -195
-0.98 0 1 -191
-0.98 0 1 -197
-0.96 0 1 -190
-0.96 0 1 -176
-0.94 0 1 -182
-0.94 0 1 -173
-0.93 0 1 -192
-0.93 0 1 -175
-0.91 0 1 -182
-0.91 0 1 -185
-0.88 0 1 -179
-0.88 0 1 -179
-0.83 0 1 -188
-0.83 0 1 -180
-0.73 0 1 -176
-0.73 0 1 -147
-0.57 0 1 -148
-0.57 0 1 -146
-0.35 0 1 -143
-0.35 0 1 -152
-0.06 0 1 -168
-0.06 0 1 -158
0.31 0 1 -162
0.31 0 1 -181
0.75 0 1 -186
0.75 0 1 -171
1.24 0 1 -175
1.24 0 1 -167
1.76 0 1 -175
1.76 0 1 -182
2.29 0 1 -185
2.29 0 1 -195
2.78 0 1 -186
2.78 0 1 -176
3.21 0 1 -192
3.21 0 1 -182
3.54 0 1 -172
3.54 0 1 -170
3.72 1 0 -166
3.72 1 0 -164
3.75 1 0 -157
3.75 1 0 -162
3.60 1 0 -158
3.60 1 0 -149
3.28 1 0 -147
3.28 1 0 -143
2.79 1 0 -150
2.79 1 0 -156
2.16 1 0 -152
2.16 1 0 -165
1.43 1 0 -172
1.43 1 0 -171
0.64 1 0 -178
0.64 1 0 -186
-0.16 1 0 -180
-0.16 1 0 -197
-0.91 1 0 -202
-0.91 1 0 -263
-1.57 1 0 -285
-1.57 1 0 -326
-2.09 1 0 -205
-2.09 1 0 -195
-2.45 1 0 -207
-2.45 1 0 -209
-2.63 1 0 -226
-2.63 1 0 -224
-2.62 1 0 -277
-2.62 1 0 -210
-2.43 1 0 -242
-2.43 1 0 -150
-2.08 1 0 -121
-2.08 1 0 -45
-1.59 1 0 -11
-1.59 1 0 34
-1.02 1 0 61
-1.02 1 0 62
-0.39 1 0 41
-0.39 1 0 -78
0.25 1 0 -239
0.25 1 0 -250
0.85 1 0 -227
0.85 1 0 -195
1.38 1 0 -224
1.38 1 0 -113
1.81 1 0 -1
1.81 1 0 19
2.12 0 1 37
2.12 0 1 50
2.30 0 1 18
2.30 0 1 -114
2.34 0 1 -184
2.34 0 1 -292
2.24 0 1 -269
2.24 0 1 -287
2.04 0 1 -195
2.04 0 1 -204
1.73 0 1 -322
1.73 0 1 -279
1.36 0 1 -254
1.36 0 1 -283
0.94 0 1 -237
0.94 0 1 -221
0.51 0 1 -223
0.51 0 1 -250
0.09 0 1 -226
0.09 0 1 -310
-0.30 0 1 -284
-0.30 0 1 -382
-0.63 0 1 -274
-0.63 0 1 -277
-0.91 0 1 -337
-0.91 0 1 -284
-1.12 0 1 -276
-1.12 0 1 -280
-1.25 0 1 -281
-1.25 0 1 -259
-1.33 0 1 -264
-1.33 0 1 -250
-1.35 0 1 -247
-1.35 0 1 -253
-1.33 0 1 -270
-1.33 0 1 -255
-1.27 0 1 -268
-1.27 0 1 -275
-1.20 0 1 -283
-1.20 0 1 -253
-1.13 0 1 -242
-1.13 0 1 -270
-1.06 0 1 -227
-1.06 0 1 -210
-1.00 0 1 -231
-1.00 0 1 -241
-0.96 0 1 -226
-0.96 0 1 -205
-0.93 0 1 -200
-0.93 0 1 -200
-0.92 0 1 -223
-0.92 0 1 -211
-0.91 0 1 -203
-0.91 0 1 -221
-0.91 0 1 -218
-0.91 0 1 -212
-0.91 0 1 -203
-0.91 0 1 -207
-0.90 0 1 -200
-0.90 0 1 -192
-0.89 0 1 -193
-0.89 0 1 -178
-0.86 0 1 -192
-0.86 0 1 -191
-0.83 0 1 -170
-0.83 0 1 -146
-0.80 0 1 -189
-0.80 0 1 -156
-0.77 0 1 -164
-0.77 0 1 -156
-0.75 0 1 -161
-0.75 0 1 -158
-0.75 0 1 -172
-0.75 0 1 -195
-0.77 0 1 -186
-0.77 0 1 -193
-0.82 0 1 -177
-0.82 0 1 -176
-0.89 0 1 -205
-0.89 0 1 -163
-0.97 0 1 -190
-0.97 0 1 -161
-1.07 0 1 -153
-1.07 0 1 -176
-1.17 0 1 -180
-1.17 0 1 -189
-1.24 0 1 -188
-1.24 0 1 -186
-1.26 0 1 -182
-1.26 0 1 -175
-1.22 0 1 -181
-1.22 0 1 -146
-1.08 0 1 -155
-1.08 0 1 -131
-0.85 0 1 -141
-0.85 0 1 -158
-0.50 0 1 -141
-0.50 0 1 -196
-0.04 0 1 -182
-0.04 0 1 -188
0.53 0 1 -199
0.53 0 1 -212
1.17 0 1 -182
1.17 0 1 -186
1.86 0 1 -189
1.86 0 1 -183
2.55 0 1 -180
2.55 0 1 -148
3.21 0 1 -199
3.21 0 1 -183
3.77 1 0 -186
3.77 1 0 -193
4.19 1 0 -174
4.19 1 0 -172
4.43 1 0 -187
4.43 1 0 -187
4.47 1 0 -192
4.47 1 0 -185
4.29 1 0 -206
4.29 1 0 -201
3.88 1 0 -200
3.88 1 0 -188
3.28 1 0 -197
3.28 1 0 -203
2.51 1 0 -176
2.51 1 0 -229
1.61 1 0 -218
1.61 1 0 -245
0.66 1 0 -232
0.66 1 0 -270
-0.30 1 0 -250
-0.30 1 0 -298
-1.21 1 0 -268
-1.21 1 0 -222
-2.00 1 0 -259
-2.00 1 0 -180
-2.63 1 0 -239
-2.63 1 0 -235
-3.06 1 0 -290
-3.06 1 0 -279
-3.29 1 0 -258
-3.29 1 0 -136
-3.29 1 0 -147
-3.29 1 0 -126
-3.08 1 0 -22
-3.08 1 0 10
-2.69 1 0 33
-2.69 1 0 47
-2.15 1 0 6
-2.15 1 0 -153
-1.50 1 0 -142
-1.50 1 0 -210
-0.78 1 0 -48
-0.78 1 0 -42
-0.06 1 0 19
-0.06 1 0 37
0.64 1 0 54
0.64 1 0 68
1.26 1 0 48
1.26 1 0 -9
1.77 1 0 -73
1.77 1 0 -179
2.15 1 0 -118
2.15 1 0 -85
2.38 1 0 -50
2.38 1 0 -48
2.47 0 1 -12
2.47 0 1 9
2.41 0 1 -18
2.41 0 1 -138
2.23 0 1 -236
2.23 0 1 -325
1.93 0 1 -256
1.93 0 1 -229
1.56 0 1 -175
1.56 0 1 -187
1.14 0 1 -180
1.14 0 1 -244
0.69 0 1 -242
0.69 0 1 -233
0.25 0 1 -218
0.25 0 1 -230
-0.17 0 1 -234
-0.17 0 1 -270
-0.54 0 1 -331
-0.54 0 1 -379
-0.85 0 1 -255
-0.85 0 1 -259
-1.09 0 1 -351
-1.09 0 1 -262
-1.27 0 1 -267
-1.27 0 1 -282
-1.38 0 1 -282
-1.38 0 1 -252
-1.44 0 1 -301
-1.44 0 1 -246
-1.45 0 1 -277
-1.45 0 1 -266
5 Loops Complete both delayed and normal
-1.94 0 1 -269
-1.63 0 1 -246
-1.30 0 1 -240
-0.97 0 1 -270
-0.66 0 1 -262
-0.39 0 1 -323
-0.18 0 1 -337
-0.05 0 1 -278
0.02 0 1 -236
0.02 0 1 -273
-0.03 0 1 -265
-0.11 0 1 -258
-0.20 0 1 -251
-0.28 0 1 -267
-0.30 0 1 -243
-0.26 0 1 -275
-0.12 0 1 -260
0.13 0 1 -233
0.49 0 1 -252
0.95 0 1 -251
1.48 0 1 -258
2.07 0 1 -250
2.67 0 1 -267
3.23 0 1 -263
3.70 0 1 -242
4.04 1 0 -255
4.21 1 0 -247
4.19 1 0 -222
3.97 1 0 -254
3.54 1 0 -255
2.93 1 0 -228
2.17 1 0 -209
1.31 1 0 -224
0.41 1 0 -232
-0.49 1 0 -251
-1.31 1 0 -222
-2.01 1 0 -270
-2.56 1 0 -235
-2.91 1 0 -231
-3.07 1 0 -256
-3.02 1 0 -264
-2.79 1 0 -243
-2.40 1 0 -252
-1.89 1 0 -219
-1.29 1 0 -232
-0.65 1 0 -265
-0.02 1 0 -247
0.57 1 0 -268
1.07 1 0 -207
1.46 1 0 -223
1.73 1 0 -168
1.86 1 0 -214
1.85 0 1 -384
1.71 0 1 -312
1.46 0 1 -379
1.12 0 1 -300
0.71 0 1 -291
0.25 0 1 -211
-0.22 0 1 -282
-0.67 0 1 -324
-1.10 0 1 -343
-1.47 0 1 -282
-1.78 0 1 -268
-2.01 0 1 -247
-2.15 0 1 -275
-2.21 0 1 -294
-2.19 0 1 -244
-2.09 0 1 -255
-1.93 0 1 -251
-1.73 0 1 -261
-1.48 0 1 -252
-1.23 0 1 -171
-0.98 0 1 -221
-0.75 0 1 -262
-0.57 0 1 -242
-0.44 0 1 -195
-0.37 0 1 -149
-0.38 0 1 -170

