-1.94 0 1 28
-1.63 0 1 32
-1.30 0 1 -53
-0.97 0 1 -147
-0.66 0 1 -180
-0.39 0 1 -229
-0.18 0 1 -161
-0.05 0 1 -153
0.02 0 1 -158
0.02 0 1 -192
-0.03 0 1 -223
-0.11 0 1 -235
-0.20 0 1 -185
-0.28 0 1 -97
-0.30 0 1 -117
-0.26 0 1 -135
-0.12 0 1 -129
0.13 0 1 -118
0.49 0 1 -101
0.95 0 1 -110
1.48 0 1 -210
2.07 0 1 -185
2.67 0 1 -119
3.23 0 1 -128
3.70 0 1 -107
4.04 1 0 -149
4.21 1 0 -126
4.19 1 0 -149
3.97 1 0 -140
3.54 1 0 -133
2.93 1 0 -151
2.17 1 0 -131
1.31 1 0 -124
0.41 1 0 -135
-0.49 1 0 -136
-1.31 1 0 -211
-2.01 1 0 -197
-2.56 1 0 24
-2.91 1 0 54
-3.07 1 0 79
-3.02 1 0 80
-2.79 1 0 49
-2.40 1 0 23
-1.89 1 0 3
-1.29 1 0 -6
-0.65 1 0 44
-0.02 1 0 80
0.57 1 0 82
1.07 1 0 74
1.46 1 0 56
1.73 1 0 24
1.86 1 0 2
1.85 0 1 -865
1.71 0 1 23
1.46 0 1 -25
1.12 0 1 -86
0.71 0 1 -164
0.25 0 1 -106
-0.22 0 1 -165
-0.67 0 1 -172
-1.10 0 1 -156
-1.47 0 1 -121
-1.78 0 1 -112
-2.01 0 1 -145
-2.15 0 1 -96
-2.21 0 1 -140
-2.19 0 1 -172
-2.09 0 1 -128
-1.93 0 1 -171
-1.73 0 1 -73
-1.48 0 1 -263
-1.23 0 1 -140
-0.98 0 1 -169
-0.75 0 1 -182
-0.57 0 1 -192
-0.44 0 1 -200
-0.37 0 1 -176
-0.38 0 1 -140
-0.46 0 1 -114
-0.61 0 1 -144
-0.81 0 1 -168
-1.04 0 1 -142
-1.28 0 1 -180
-1.50 0 1 -150
-1.66 0 1 -164
-1.73 0 1 -210
-1.69 0 1 -199
-1.51 0 1 -183
-1.18 0 1 -201
-0.70 0 1 -162
-0.09 0 1 -217
0.64 0 1 -201
1.44 0 1 -177
2.25 0 1 -181
3.04 0 1 -146
3.73 1 0 -152
4.28 1 0 -153
4.64 1 0 -156
4.78 1 0 -142
4.67 1 0 -161
4.32 1 0 -274
3.76 1 0 -195
3.01 1 0 -220
2.13 1 0 -171
1.19 1 0 -233
0.23 1 0 -194
-0.66 1 0 -178
-1.43 1 0 -158
-2.04 1 0 -79
-2.45 1 0 56
-2.63 1 0 79
-2.60 1 0 59
-2.36 1 0 5
-1.93 1 0 -9
-1.37 1 0 -55
-0.71 1 0 42
-0.01 1 0 81
0.69 1 0 82
1.33 1 0 72
1.88 1 0 45
2.29 0 1 20
2.56 0 1 10
2.67 0 1 -107
2.62 0 1 -63
2.43 0 1 -185
2.11 0 1 -212
1.69 0 1 -182
1.19 0 1 -237
0.66 0 1 -190
0.12 0 1 -162
-0.40 0 1 -129
-0.88 0 1 -157
-1.29 0 1 -160
-1.63 0 1 -138
-1.89 0 1 -132
-2.07 0 1 -158
-2.16 0 1 -135
-2.19 0 1 -134
-2.15 0 1 -226
-2.06 0 1 -225
-1.94 0 1 -182
-1.79 0 1 -150
-1.62 0 1 -175
-1.44 0 1 -244
-1.27 0 1 -212
-1.10 0 1 -188
-0.94 0 1 -215
-0.81 0 1 -158
-0.70 0 1 -155
-0.62 0 1 -194
-0.57 0 1 -205
-0.57 0 1 -192
-0.61 0 1 -189
-0.69 0 1 -141
-0.81 0 1 -133
-0.97 0 1 -126
-1.15 0 1 -160
-1.34 0 1 -145
-1.51 0 1 -186
-1.64 0 1 -158
-1.72 0 1 -143
-1.71 0 1 -134
-1.59 0 1 -119
-1.36 0 1 -103
-0.99 0 1 -122
-0.50 0 1 -127
0.10 0 1 -129
0.78 0 1 -126
1.51 0 1 -149
2.25 0 1 -142
2.94 0 1 -110
3.53 0 1 -129
3.98 1 0 -120
4.24 1 0 -103
4.29 1 0 -110
4.12 1 0 -103
3.73 1 0 -112
3.14 1 0 -109
2.40 1 0 -119
1.54 1 0 -122
0.64 1 0 -165
-0.26 1 0 -151
-1.08 1 0 -144
-1.78 1 0 -155
-2.32 1 0 -170
-2.66 1 0 -187
-2.79 1 0 -21
-2.71 1 0 34
-2.43 1 0 85
-1.98 1 0 79
-1.39 1 0 57
-0.72 1 0 26
-0.00 1 0 2
0.71 1 0 -29
1.38 1 0 37
1.96 1 0 79
2.42 0 1 71
2.74 0 1 74
2.92 0 1 -27
2.94 0 1 43
2.83 0 1 -5
2.58 0 1 -40
2.24 0 1 -84
1.81 0 1 -84
1.34 0 1 -241
0.84 0 1 -154
0.34 0 1 -179
-0.13 0 1 -244
-0.56 0 1 -167
-0.94 0 1 -191
-1.25 0 1 -145
-1.50 0 1 -184
-1.69 0 1 -202
-1.82 0 1 -159
-1.90 0 1 -145
-1.94 0 1 -112
-1.94 0 1 -261
-1.92 0 1 -203
-1.88 0 1 -202
-1.82 0 1 -141
-1.76 0 1 -129
-1.69 0 1 -117
-1.61 0 1 -188
-1.54 0 1 -150
-1.45 0 1 -156
-1.37 0 1 -172
-1.29 0 1 -185
-1.21 0 1 -172
-1.14 0 1 -222
-1.07 0 1 -164
-1.02 0 1 -151
-0.98 0 1 -154
-0.96 0 1 -146
-0.94 0 1 -122
-0.93 0 1 -175
-0.91 0 1 -171
-0.88 0 1 -172
-0.83 0 1 -149
-0.73 0 1 -149
-0.57 0 1 -140
-0.35 0 1 -150
-0.06 0 1 -125
0.31 0 1 -131
0.75 0 1 -117
1.24 0 1 -104
1.76 0 1 -101
2.29 0 1 -97
2.78 0 1 -114
3.21 0 1 -110
3.54 0 1 -130
3.72 1 0 -147
3.75 1 0 -138
3.60 1 0 -139
3.28 1 0 -116
2.79 1 0 -130
2.16 1 0 -148
1.43 1 0 -127
0.64 1 0 -125
-0.16 1 0 -101
-0.91 1 0 -97
-1.57 1 0 -126
-2.09 1 0 -147
-2.45 1 0 -224
-2.63 1 0 -141
-2.62 1 0 -9
-2.43 1 0 3
-2.08 1 0 83
-1.59 1 0 94
-1.02 1 0 93
-0.39 1 0 76
0.25 1 0 72
0.85 1 0 54
1.38 1 0 34
1.81 1 0 12
2.12 1 0 -53
2.30 0 1 -30
2.34 0 1 16
2.24 0 1 -19
2.04 0 1 -65
1.73 0 1 -166
1.36 0 1 -102
0.94 0 1 -200
0.51 0 1 -220
0.09 0 1 -207
-0.30 0 1 -184
-0.63 0 1 -150
-0.91 0 1 -196
-1.12 0 1 -171
-1.25 0 1 -153
-1.33 0 1 -189
-1.35 0 1 -218
-1.33 0 1 -175
-1.27 0 1 -118
-1.20 0 1 -133
-1.13 0 1 -155
-1.06 0 1 -196
-1.00 0 1 -185
-0.96 0 1 -189
-0.93 0 1 -164
-0.92 0 1 -142
-0.91 0 1 -207
-0.91 0 1 -168
-0.91 0 1 -165
-0.90 0 1 -146
-0.89 0 1 -150
-0.86 0 1 -167
-0.83 0 1 -186
-0.80 0 1 -169
-0.77 0 1 -161
-0.75 0 1 -173
-0.75 0 1 -156
-0.77 0 1 -149
-0.82 0 1 -141
-0.89 0 1 -169
-0.97 0 1 -164
-1.07 0 1 -174
-1.17 0 1 -151
-1.24 0 1 -167
-1.26 0 1 -133
-1.22 0 1 -98
-1.08 0 1 -146
-0.85 0 1 -148
-0.50 0 1 -126
-0.04 0 1 -135
0.53 0 1 -134
1.17 0 1 -134
1.86 0 1 -149
2.55 0 1 -149
3.21 0 1 -187
3.77 1 0 -159
4.19 1 0 -138
4.43 1 0 -136
4.47 1 0 -141
4.29 1 0 -141
3.88 1 0 -128
3.28 1 0 -112
2.51 1 0 -158
1.61 1 0 -138
0.66 1 0 -861
-0.30 1 0 -165
-1.21 1 0 -200
-2.00 1 0 -225
-2.63 1 0 -163
-3.06 1 0 -71
-3.29 1 0 35
-3.29 1 0 71
-3.08 1 0 64
-2.69 1 0 33
-2.15 1 0 -6
-1.50 1 0 -27
-0.78 1 0 -18
-0.06 1 0 22
0.64 1 0 75
1.26 1 0 88
1.77 1 0 94
2.15 1 0 88
2.38 1 0 83
2.47 0 1 72
2.41 0 1 57
2.23 0 1 32
1.93 0 1 -28
1.56 0 1 -28
1.14 0 1 -56
0.69 0 1 -181
0.25 0 1 -157
-0.17 0 1 -187
-0.54 0 1 -91
-0.85 0 1 -213
-1.09 0 1 -176
-1.27 0 1 -165
-1.38 0 1 -122
-1.44 0 1 -172
-1.45 0 1 -149
-1.94 0 1 -179
-1.94 0 1 -152
-1.63 0 1 -173
-1.63 0 1 -238
-1.30 0 1 -194
-1.30 0 1 -151
-0.97 0 1 -287
-0.97 0 1 -120
-0.66 0 1 -216
-0.66 0 1 -207
-0.39 0 1 -869
-0.39 0 1 -237
-0.18 0 1 -224
-0.18 0 1 -176
-0.05 0 1 -191
-0.05 0 1 -189
0.02 0 1 -159
0.02 0 1 -135
0.02 0 1 -118
0.02 0 1 -142
-0.03 0 1 -131
-0.03 0 1 -142
-0.11 0 1 -108
-0.11 0 1 -167
-0.20 0 1 -145
-0.20 0 1 -148
-0.28 0 1 -114
-0.28 0 1 -115
-0.30 0 1 -135
-0.30 0 1 -116
-0.26 0 1 -157
-0.26 0 1 -138
-0.12 0 1 -162
-0.12 0 1 -126
0.13 0 1 -117
0.13 0 1 -133
0.49 0 1 -133
0.49 0 1 -148
0.95 0 1 -149
0.95 0 1 -156
1.48 0 1 -154
1.48 0 1 -131
2.07 0 1 -147
2.07 0 1 -154
2.67 0 1 -140
2.67 0 1 -138
3.23 0 1 -152
3.23 0 1 -166
3.70 0 1 -150
3.70 0 1 -148
4.04 1 0 -164
4.04 1 0 -132
4.21 1 0 -142
4.21 1 0 -137
4.19 1 0 -135
4.19 1 0 -115
3.97 1 0 -127
3.97 1 0 -142
3.54 1 0 -141
3.54 1 0 -139
2.93 1 0 -125
2.93 1 0 -115
2.17 1 0 -124
2.17 1 0 -124
1.31 1 0 -154
1.31 1 0 -4
0.41 1 0 43
0.41 1 0 74
-0.49 1 0 76
-0.49 1 0 46
-1.31 1 0 -6
-1.31 1 0 -45
-2.01 1 0 -40
-2.01 1 0 42
-2.56 1 0 68
-2.56 1 0 92
-2.91 1 0 89
-2.91 1 0 87
-3.07 1 0 79
-3.07 1 0 69
-3.02 1 0 43
-3.02 1 0 27
-2.79 1 0 -14
-2.79 1 0 -26
-2.40 1 0 -60
-2.40 1 0 14
-1.89 1 0 69
-1.89 1 0 88
-1.29 1 0 90
-1.29 1 0 82
-0.65 1 0 79
-0.65 1 0 58
-0.02 1 0 15
-0.02 1 0 -3
0.57 1 0 5
0.57 1 0 2
1.07 1 0 -26
1.07 1 0 87
1.46 1 0 92
1.46 1 0 101
1.73 1 0 101
1.73 1 0 101
1.86 1 0 98
1.86 1 0 97
1.85 0 1 94
1.85 0 1 93
1.71 0 1 86
1.71 0 1 73
1.46 0 1 71
1.46 0 1 41
1.12 0 1 43
1.12 0 1 5
0.71 0 1 -59
0.71 0 1 -99
0.25 0 1 -259
0.25 0 1 -224
-0.22 0 1 -740
-0.22 0 1 -863
-0.67 0 1 -175
-0.67 0 1 -148
-1.10 0 1 -227
-1.10 0 1 -229
-1.47 0 1 -153
-1.47 0 1 -153
-1.78 0 1 -154
-1.78 0 1 -110
-2.01 0 1 -105
-2.01 0 1 -147
-2.15 0 1 -154
-2.15 0 1 -175
-2.21 0 1 -227
-2.21 0 1 -186
-2.19 0 1 -155
-2.19 0 1 -211
-2.09 0 1 -214
-2.09 0 1 -195
-1.93 0 1 -178
-1.93 0 1 -167
-1.73 0 1 -153
-1.73 0 1 -164
-1.48 0 1 -183
-1.48 0 1 -165
-1.23 0 1 -185
-1.23 0 1 -165
-0.98 0 1 -177
-0.98 0 1 -192
-0.75 0 1 -161
-0.75 0 1 -141
-0.57 0 1 -119
-0.57 0 1 -123
-0.44 0 1 -122
-0.44 0 1 -143
-0.37 0 1 -162
-0.37 0 1 -232
-0.38 0 1 -135
-0.38 0 1 -150
-0.46 0 1 -865
-0.46 0 1 -867
-0.61 0 1 -871
-0.61 0 1 -864
-0.81 0 1 -859
-0.81 0 1 -865
-1.04 0 1 -865
-1.04 0 1 -869
-1.28 0 1 -874
-1.28 0 1 -864
-1.50 0 1 -125
-1.50 0 1 -136
-1.66 0 1 -129
-1.66 0 1 -862
-1.73 0 1 -142
-1.73 0 1 -864
-1.69 0 1 -865
-1.69 0 1 -863
-1.51 0 1 -864
-1.51 0 1 -882
-1.18 0 1 -860
-1.18 0 1 -862
-0.70 0 1 -861
-0.70 0 1 -865
-0.09 0 1 -130
-0.09 0 1 -130
0.64 0 1 -864
0.64 0 1 -865
1.44 0 1 -859
1.44 0 1 -865
2.25 0 1 -860
2.25 0 1 -866
3.04 0 1 -860
3.04 0 1 -861
3.73 1 0 -137
3.73 1 0 -863
4.28 1 0 -862
4.28 1 0 -863
4.64 1 0 -865
4.64 1 0 -872
4.78 1 0 -864
4.78 1 0 -869
4.67 1 0 -863
4.67 1 0 -866
4.32 1 0 -872
4.32 1 0 -864
3.76 1 0 -867
3.76 1 0 -865
3.01 1 0 -871
3.01 1 0 -865
2.13 1 0 -861
2.13 1 0 -865
1.19 1 0 79
1.19 1 0 93
0.23 1 0 94
0.23 1 0 88
-0.66 1 0 82
-0.66 1 0 -864
-1.43 1 0 -863
-1.43 1 0 -865
-2.04 1 0 -863
-2.04 1 0 -849
-2.45 1 0 83
-2.45 1 0 92
-2.63 1 0 93
-2.63 1 0 87
-2.60 1 0 85
-2.60 1 0 -55
-2.36 1 0 45
-2.36 1 0 27
-1.93 1 0 -20
-1.93 1 0 -866
-1.37 1 0 -866
-1.37 1 0 10
-0.71 1 0 57
-0.71 1 0 82
-0.01 1 0 78
-0.01 1 0 61
0.69 1 0 35
0.69 1 0 -867
1.33 1 0 -868
1.33 1 0 -869
1.88 1 0 -863
1.88 1 0 -869
2.29 0 1 -867
2.29 0 1 -883
2.56 0 1 -866
2.56 0 1 -869
2.67 0 1 -852
2.67 0 1 -866
2.62 0 1 -871
2.62 0 1 -864
2.43 0 1 -856
2.43 0 1 -865
2.11 0 1 -872
2.11 0 1 -866
1.69 0 1 -864
1.69 0 1 -867
1.19 0 1 -866
1.19 0 1 -861
0.66 0 1 -864
0.66 0 1 -870
0.12 0 1 -865
0.12 0 1 -867
-0.40 0 1 -864
-0.40 0 1 -865
-0.88 0 1 -862
-0.88 0 1 -867
-1.29 0 1 -865
-1.29 0 1 -864
-1.63 0 1 -863
-1.63 0 1 -865
-1.89 0 1 -862
-1.89 0 1 -872
-2.07 0 1 -865
-2.07 0 1 -858
-2.16 0 1 -865
-2.16 0 1 -864
-2.19 0 1 -861
-2.19 0 1 -864
-2.15 0 1 -867
-2.15 0 1 -862
-2.06 0 1 -865
-2.06 0 1 -865
-1.94 0 1 -861
-1.94 0 1 -865
-1.79 0 1 -865
-1.79 0 1 -868
-1.62 0 1 -867
-1.62 0 1 -865
-1.44 0 1 -859
-1.44 0 1 -874
-1.27 0 1 -865
-1.27 0 1 -865
-1.10 0 1 -861
-1.10 0 1 -862
-0.94 0 1 -864
-0.94 0 1 -864
-0.81 0 1 -868
-0.81 0 1 -856
-0.70 0 1 -872
-0.70 0 1 -863
-0.62 0 1 -859
-0.62 0 1 -864
-0.57 0 1 -868
-0.57 0 1 -861
-0.57 0 1 -866
-0.57 0 1 -863
-0.61 0 1 -857
-0.61 0 1 -865
-0.69 0 1 -866
-0.69 0 1 -882
-0.81 0 1 -863
-0.81 0 1 -864
-0.97 0 1 -860
-0.97 0 1 -866
-1.15 0 1 -866
-1.15 0 1 -862
-1.34 0 1 -865
-1.34 0 1 -863
-1.51 0 1 -883
-1.51 0 1 -867
-1.64 0 1 -855
-1.64 0 1 -866
-1.72 0 1 -864
-1.72 0 1 -867
-1.71 0 1 -870
-1.71 0 1 -867
-1.59 0 1 -867
-1.59 0 1 -855
-1.36 0 1 -863
-1.36 0 1 -867
-0.99 0 1 -860
-0.99 0 1 -865
-0.50 0 1 -854
-0.50 0 1 -883
0.10 0 1 -865
0.10 0 1 -873
0.78 0 1 -865
0.78 0 1 -866
1.51 0 1 -869
1.51 0 1 -866
2.25 0 1 -871
2.25 0 1 -863
2.94 0 1 -867
2.94 0 1 -864
3.53 0 1 -863
3.53 0 1 -865
3.98 1 0 -866
3.98 1 0 -859
4.24 1 0 -865
4.24 1 0 -856
4.29 1 0 -866
4.29 1 0 -862
4.12 1 0 -867
4.12 1 0 -862
3.73 1 0 -858
3.73 1 0 -866
3.14 1 0 -857
3.14 1 0 -865
2.40 1 0 -867
2.40 1 0 -866
1.54 1 0 -861
1.54 1 0 -864
0.64 1 0 -865
0.64 1 0 -856
-0.26 1 0 -866
-0.26 1 0 -882
-1.08 1 0 -867
-1.08 1 0 -864
-1.78 1 0 -860
-1.78 1 0 -872
-2.32 1 0 -866
-2.32 1 0 -868
-2.66 1 0 -864
-2.66 1 0 -865
-2.79 1 0 -427
-2.79 1 0 114
-2.71 1 0 94
-2.71 1 0 113
-2.43 1 0 114
-2.43 1 0 114
-1.98 1 0 113
-1.98 1 0 110
-1.39 1 0 112
-1.39 1 0 113
-0.72 1 0 112
-0.72 1 0 113
-0.00 1 0 112
-0.00 1 0 -866
0.71 1 0 111
0.71 1 0 111
1.38 1 0 111
1.38 1 0 109
1.96 1 0 110
1.96 1 0 97
2.42 0 1 109
2.42 0 1 108
2.74 0 1 107
2.74 0 1 106
2.92 0 1 105
2.92 0 1 103
2.94 0 1 100
2.94 0 1 99
2.83 0 1 97
2.83 0 1 94
2.58 0 1 90
2.58 0 1 88
2.24 0 1 83
2.24 0 1 74
1.81 0 1 55
1.81 0 1 33
1.34 0 1 26
1.34 0 1 -84
0.84 0 1 -77
0.84 0 1 -157
0.34 0 1 -187
0.34 0 1 -236
-0.13 0 1 -268
-0.13 0 1 -182
-0.56 0 1 -234
-0.56 0 1 -229
-0.94 0 1 -157
-0.94 0 1 -159
-1.25 0 1 -123
-1.25 0 1 -133
-1.50 0 1 -128
-1.50 0 1 -155
-1.69 0 1 -177
-1.69 0 1 -166
-1.82 0 1 -75
-1.82 0 1 -199
-1.90 0 1 -138
-1.90 0 1 -783
-1.94 0 1 -808
-1.94 0 1 -144
-1.94 0 1 -134
-1.94 0 1 -154
-1.92 0 1 -188
-1.92 0 1 -112
-1.88 0 1 -114
-1.88 0 1 -100
-1.82 0 1 -140
-1.82 0 1 -146
-1.76 0 1 -713
-1.76 0 1 -651
-1.69 0 1 -190
-1.69 0 1 -141
-1.61 0 1 -180
-1.61 0 1 -147
-1.54 0 1 -115
-1.54 0 1 -173
-1.45 0 1 -165
-1.45 0 1 -129
-1.37 0 1 -123
-1.37 0 1 -122
-1.29 0 1 -125
-1.29 0 1 -111
-1.21 0 1 -138
-1.21 0 1 -121
-1.14 0 1 -119
-1.14 0 1 -132
-1.07 0 1 -111
-1.07 0 1 -102
-1.02 0 1 -116
-1.02 0 1 -156
-0.98 0 1 -134
-0.98 0 1 -153
-0.96 0 1 -150
-0.96 0 1 -148
-0.94 0 1 -169
-0.94 0 1 -862
-0.93 0 1 -144
-0.93 0 1 -866
-0.91 0 1 -862
-0.91 0 1 -865
-0.88 0 1 -866
-0.88 0 1 -861
-0.83 0 1 -864
-0.83 0 1 -866
-0.73 0 1 -856
-0.73 0 1 -864
-0.57 0 1 -140
-0.57 0 1 -158
-0.35 0 1 -865
-0.35 0 1 -865
-0.06 0 1 -869
-0.06 0 1 -865
0.31 0 1 -864
0.31 0 1 -855
0.75 0 1 -865
0.75 0 1 -864
1.24 0 1 -864
1.24 0 1 -876
1.76 0 1 -867
1.76 0 1 -869
2.29 0 1 -865
2.29 0 1 -861
2.78 0 1 -866
2.78 0 1 -866
3.21 0 1 -859
3.21 0 1 -864
3.54 0 1 -871
3.54 0 1 -866
3.72 1 0 -871
3.72 1 0 -863
3.75 1 0 -864
3.75 1 0 -860
3.60 1 0 -866
3.60 1 0 -863
3.28 1 0 -865
3.28 1 0 -860
2.79 1 0 -860
2.79 1 0 -867
2.16 1 0 -871
2.16 1 0 -865
1.43 1 0 -852
1.43 1 0 -866
0.64 1 0 -89
0.64 1 0 -143
-0.16 1 0 -150
-0.16 1 0 -146
-0.91 1 0 -269
-0.91 1 0 -466
-1.57 1 0 -871
-1.57 1 0 -864
-2.09 1 0 -867
-2.09 1 0 -874
-2.45 1 0 -866
-2.45 1 0 -858
-2.63 1 0 104
-2.63 1 0 111
-2.62 1 0 109
-2.62 1 0 108
-2.43 1 0 102
-2.43 1 0 108
-2.08 1 0 108
-2.08 1 0 107
-1.59 1 0 106
-1.59 1 0 103
-1.02 1 0 101
-1.02 1 0 101
-0.39 1 0 98
-0.39 1 0 93
0.25 1 0 91
0.25 1 0 91
0.85 1 0 80
0.85 1 0 73
1.38 1 0 57
1.38 1 0 20
1.81 1 0 -57
1.81 1 0 -72
2.12 0 1 -29
2.12 0 1 -3
2.30 0 1 -31
2.30 0 1 -135
2.34 0 1 -109
2.34 0 1 -179
2.24 0 1 -251
2.24 0 1 -272
2.04 0 1 -204
2.04 0 1 -114
1.73 0 1 -172
1.73 0 1 -212
1.36 0 1 -861
1.36 0 1 -861
0.94 0 1 -813
0.94 0 1 -865
0.51 0 1 -861
0.51 0 1 -867
0.09 0 1 -872
0.09 0 1 -864
-0.30 0 1 -862
-0.30 0 1 -865
-0.63 0 1 -865
-0.63 0 1 -866
-0.91 0 1 -841
-0.91 0 1 -151
-1.12 0 1 -177
-1.12 0 1 -190
-1.25 0 1 -201
-1.25 0 1 -177
-1.33 0 1 -192
-1.33 0 1 -178
-1.35 0 1 -161
-1.35 0 1 -140
-1.33 0 1 -149
-1.33 0 1 -139
-1.27 0 1 -157
-1.27 0 1 -148
-1.20 0 1 -168
-1.20 0 1 -118
-1.13 0 1 -141
-1.13 0 1 -191
-1.06 0 1 -165
-1.06 0 1 -187
-1.00 0 1 -147
-1.00 0 1 -158
-0.96 0 1 -163
-0.96 0 1 -184
-0.93 0 1 -137
-0.93 0 1 -142
-0.92 0 1 -151
-0.92 0 1 -178
-0.91 0 1 -181
-0.91 0 1 -180
-0.91 0 1 -856
-0.91 0 1 -864
-0.91 0 1 -192
-0.91 0 1 -131
-0.90 0 1 -150
-0.90 0 1 -182
-0.89 0 1 -177
-0.89 0 1 -150
-0.86 0 1 -147
-0.86 0 1 -135
-0.83 0 1 -147
-0.83 0 1 -182
-0.80 0 1 -185
-0.80 0 1 -164
-0.77 0 1 -154
-0.77 0 1 -175
-0.75 0 1 -191
-0.75 0 1 -175
-0.75 0 1 -174
-0.75 0 1 -159
-0.77 0 1 -183
-0.77 0 1 -155
-0.82 0 1 -175
-0.82 0 1 -179
-0.89 0 1 -179
-0.89 0 1 -185
-0.97 0 1 -166
-0.97 0 1 -175
-1.07 0 1 -156
-1.07 0 1 -145
-1.17 0 1 -157
-1.17 0 1 -147
-1.24 0 1 -164
-1.24 0 1 -155
-1.26 0 1 -152
-1.26 0 1 -167
-1.22 0 1 -145
-1.22 0 1 -135
-1.08 0 1 -160
-1.08 0 1 -146
-0.85 0 1 -178
-0.85 0 1 -148
-0.50 0 1 -148
-0.50 0 1 -152
-0.04 0 1 -157
-0.04 0 1 -157
0.53 0 1 -151
0.53 0 1 -162
1.17 0 1 -137
1.17 0 1 -141
1.86 0 1 -140
1.86 0 1 -132
2.55 0 1 -136
2.55 0 1 -141
3.21 0 1 -175
3.21 0 1 -161
3.77 1 0 -141
3.77 1 0 -130
4.19 1 0 -146
4.19 1 0 -150
4.43 1 0 -129
4.43 1 0 -129
4.47 1 0 -119
4.47 1 0 -130
4.29 1 0 -141
4.29 1 0 -139
3.88 1 0 -169
3.88 1 0 -109
3.28 1 0 -175
3.28 1 0 -124
2.51 1 0 -151
2.51 1 0 -143
1.61 1 0 -107
1.61 1 0 -199
0.66 1 0 -243
0.66 1 0 -178
-0.30 1 0 -238
-0.30 1 0 -158
-1.21 1 0 -90
-1.21 1 0 21
-2.00 1 0 25
-2.00 1 0 59
-2.63 1 0 75
-2.63 1 0 86
-3.06 1 0 74
-3.06 1 0 41
-3.29 1 0 7
-3.29 1 0 -35
-3.29 1 0 -12
-3.29 1 0 0
-3.08 1 0 32
-3.08 1 0 57
-2.69 1 0 41
-2.69 1 0 -29
-2.15 1 0 -127
-2.15 1 0 -209
-1.50 1 0 -104
-1.50 1 0 -67
-0.78 1 0 -21
-0.78 1 0 38
-0.06 1 0 61
-0.06 1 0 81
0.64 1 0 55
0.64 1 0 -5
1.26 1 0 -58
1.26 1 0 -110
1.77 1 0 -132
1.77 1 0 -15
2.15 1 0 2
2.15 1 0 41
2.38 1 0 66
2.38 1 0 80
2.47 0 1 72
2.47 0 1 20
2.41 0 1 -35
2.41 0 1 -129
2.23 0 1 -220
2.23 0 1 -280
1.93 0 1 -191
1.93 0 1 -209
1.56 0 1 -215
1.56 0 1 -199
1.14 0 1 -211
1.14 0 1 -145
0.69 0 1 -173
0.69 0 1 -213
0.25 0 1 -206
0.25 0 1 -179
-0.17 0 1 -144
-0.17 0 1 -150
-0.54 0 1 -242
-0.54 0 1 -222
-0.85 0 1 -198
-0.85 0 1 -204
-1.09 0 1 -246
-1.09 0 1 -266
-1.27 0 1 -200
-1.27 0 1 -176
-1.38 0 1 -142
-1.38 0 1 -209
-1.44 0 1 -210
-1.44 0 1 -173
-1.45 0 1 -154
-1.45 0 1 -202
5 Loops Complete both delayed and normal
-1.94 0 1 -178
-1.63 0 1 -139
-1.30 0 1 -120
-0.97 0 1 -164
-0.66 0 1 -171
-0.39 0 1 -187
-0.18 0 1 -168
-0.05 0 1 -174
0.02 0 1 -165
0.02 0 1 -164
-0.03 0 1 -170
-0.11 0 1 -161
-0.20 0 1 -149
-0.28 0 1 -174
-0.30 0 1 -164
-0.26 0 1 -154
-0.12 0 1 -175
0.13 0 1 -131
0.49 0 1 -127
0.95 0 1 -147
1.48 0 1 -151
2.07 0 1 -178
2.67 0 1 -159
3.23 0 1 -182
3.70 0 1 -149
4.04 1 0 -170
4.21 1 0 -186
4.19 1 0 -158
3.97 1 0 -176
3.54 1 0 -164
2.93 1 0 -161
2.17 1 0 -167
1.31 1 0 -141
0.41 1 0 -170
-0.49 1 0 -157
-1.31 1 0 -197
-2.01 1 0 -190
-2.56 1 0 -190
-2.91 1 0 -251
-3.07 1 0 -171
-3.02 1 0 -175
-2.79 1 0 -154
-2.40 1 0 -141
-1.89 1 0 -203
-1.29 1 0 -172
-0.65 1 0 -165
-0.02 1 0 -67
0.57 1 0 17
1.07 1 0 32
1.46 1 0 54
1.73 1 0 11
1.86 1 0 -50
1.85 0 1 -74
1.71 0 1 -48
1.46 0 1 -169
1.12 0 1 -134
0.71 0 1 -222
0.25 0 1 -241
-0.22 0 1 -273
-0.67 0 1 -211
-1.10 0 1 -156
-1.47 0 1 -106
-1.78 0 1 -138
-2.01 0 1 -214
-2.15 0 1 -144
-2.21 0 1 -135
-2.19 0 1 -145
-2.09 0 1 -182
-1.93 0 1 -167
-1.73 0 1 -134
-1.48 0 1 -92
-1.23 0 1 -232
-0.98 0 1 -218
-0.75 0 1 -216
-0.57 0 1 -179
-0.44 0 1 -171
-0.37 0 1 -194
-0.38 0 1 -173
-0.46 0 1 -188
-0.61 0 1 -183
-0.81 0 1 -158
-1.04 0 1 -108
-1.28 0 1 -90
-1.50 0 1 -109
-1.66 0 1 -91
-1.73 0 1 -109
-1.69 0 1 -123
-1.51 0 1 -150
-1.18 0 1 -139
-0.70 0 1 -162
-0.09 0 1 -134
0.64 0 1 -159
1.44 0 1 -119
2.25 0 1 -119
3.04 0 1 -100
3.73 1 0 -153
4.28 1 0 -132
4.64 1 0 -121
4.78 1 0 -138
4.67 1 0 -115
4.32 1 0 -127
3.76 1 0 -143
3.01 1 0 -149
2.13 1 0 -175
1.19 1 0 -163
0.23 1 0 -186
-0.66 1 0 -170
-1.43 1 0 -162
-2.04 1 0 -165
-2.45 1 0 -150
-2.63 1 0 -144
-2.60 1 0 -143
-2.36 1 0 -163
-1.93 1 0 -244
-1.37 1 0 -210
-0.71 1 0 -162
-0.01 1 0 -150
0.69 1 0 -14
1.33 1 0 33
1.88 1 0 60
2.29 0 1 31
2.56 0 1 -4
2.67 0 1 -132
2.62 0 1 -180
2.43 0 1 -193
2.11 0 1 -238
1.69 0 1 -215
1.19 0 1 -209
0.66 0 1 -183
0.12 0 1 -187
-0.40 0 1 -178
-0.88 0 1 -113
-1.29 0 1 -177
-1.63 0 1 -125
-1.89 0 1 -144
-2.07 0 1 -216
-2.16 0 1 -179
-2.19 0 1 -179
-2.15 0 1 -172
-2.06 0 1 -168
-1.94 0 1 -194
-1.79 0 1 -206
-1.62 0 1 -189
-1.44 0 1 -191
-1.27 0 1 -175
-1.10 0 1 -194
-0.94 0 1 -180
-0.81 0 1 -165
-0.70 0 1 -139
-0.62 0 1 -169
-0.57 0 1 -161
-0.57 0 1 -188
-0.61 0 1 -187
-0.69 0 1 -175
-0.81 0 1 -143
-0.97 0 1 -151
-1.15 0 1 -184
-1.34 0 1 -143
-1.51 0 1 -173
-1.64 0 1 -174
-1.72 0 1 -193
-1.71 0 1 -177
-1.59 0 1 -166
-1.36 0 1 -176
-0.99 0 1 -153
-0.50 0 1 -130
0.10 0 1 -148
0.78 0 1 -151
1.51 0 1 -149
2.25 0 1 -161
2.94 0 1 -156
3.53 0 1 -152
3.98 1 0 -158
4.24 1 0 -155
4.29 1 0 -157
4.12 1 0 -157
3.73 1 0 -117
3.14 1 0 -110
2.40 1 0 -113
1.54 1 0 -113
0.64 1 0 -139
-0.26 1 0 -144
-1.08 1 0 -129
-1.78 1 0 -196
-2.32 1 0 -199
-2.66 1 0 -198
-2.79 1 0 -151
-2.71 1 0 -188
-2.43 1 0 -174
-1.98 1 0 -222
-1.39 1 0 -278
-0.72 1 0 -241
-0.00 1 0 -118
0.71 1 0 -44
1.38 1 0 9
1.96 1 0 19
2.42 0 1 69
2.74 0 1 74
2.92 0 1 56
2.94 0 1 18
2.83 0 1 -95
2.58 0 1 -240
2.24 0 1 -207
1.81 0 1 -282
1.34 0 1 -219
0.84 0 1 -231
0.34 0 1 -212
-0.13 0 1 -196
-0.56 0 1 -235
-0.94 0 1 -189
-1.25 0 1 -202
-1.50 0 1 -186
-1.69 0 1 -175
-1.82 0 1 -117
-1.90 0 1 -236
-1.94 0 1 -177
-1.94 0 1 -158
-1.92 0 1 -180
-1.88 0 1 -195
-1.82 0 1 -225
-1.76 0 1 -166
-1.69 0 1 -186
-1.61 0 1 -206
-1.54 0 1 -152
-1.45 0 1 -175
-1.37 0 1 -169
-1.29 0 1 -193
-1.21 0 1 -183
-1.14 0 1 -167
-1.07 0 1 -166
-1.02 0 1 -157
-0.98 0 1 -155
-0.96 0 1 -149
-0.94 0 1 -136
-0.93 0 1 -142
-0.91 0 1 -143
-0.88 0 1 -129
-0.83 0 1 -113
-0.73 0 1 -128
-0.57 0 1 -137
-0.35 0 1 -117
-0.06 0 1 -121
0.31 0 1 -131
0.75 0 1 -139
1.24 0 1 -134
1.76 0 1 -132
2.29 0 1 -149
2.78 0 1 -137
3.21 0 1 -133
3.54 0 1 -123
3.72 1 0 -97
3.75 1 0 -96
3.60 1 0 -81
3.28 1 0 -100
2.79 1 0 -90
2.16 1 0 -102
1.43 1 0 -121
0.64 1 0 -127
-0.16 1 0 -102
-0.91 1 0 -122
-1.57 1 0 -135
-2.09 1 0 -134
-2.45 1 0 -146
-2.63 1 0 -131
-2.62 1 0 -157
-2.43 1 0 -138
-2.08 1 0 -161
-1.59 1 0 -153
-1.02 1 0 -210
-0.39 1 0 -251
0.25 1 0 -180
0.85 1 0 -73
1.38 1 0 -6
1.81 1 0 9
2.12 1 0 31
2.30 0 1 76
2.34 0 1 45
2.24 0 1 -5
2.04 0 1 -57
1.73 0 1 -221
1.36 0 1 -278
0.94 0 1 -266
0.51 0 1 -299
0.09 0 1 -196
-0.30 0 1 -231
-0.63 0 1 -198
-0.91 0 1 -208
-1.12 0 1 -216
-1.25 0 1 -188
-1.33 0 1 -172
-1.35 0 1 -163
-1.33 0 1 -235
-1.27 0 1 -222
-1.20 0 1 -196
-1.13 0 1 -281
-1.06 0 1 -223
-1.00 0 1 -248
-0.96 0 1 -282
-0.93 0 1 -215
-0.92 0 1 -249
-0.91 0 1 -235
-0.91 0 1 -201
-0.91 0 1 -225
-0.90 0 1 -223
-0.89 0 1 -202
-0.86 0 1 -241
-0.83 0 1 -210
-0.80 0 1 -185
-0.77 0 1 -175
-0.75 0 1 -212
-0.75 0 1 -203
-0.77 0 1 -209
-0.82 0 1 -227
-0.89 0 1 -218
-0.97 0 1 -218
-1.07 0 1 -179
-1.17 0 1 -202
-1.24 0 1 -197
-1.26 0 1 -227
-1.22 0 1 -231
-1.08 0 1 -199
-0.85 0 1 -181
-0.50 0 1 -167
-0.04 0 1 -183
0.53 0 1 -217
1.17 0 1 -188
1.86 0 1 -175
2.55 0 1 -178
3.21 0 1 -183
3.77 1 0 -159
4.19 1 0 -165
4.43 1 0 -190
4.47 1 0 -191
4.29 1 0 -201
3.88 1 0 -174
3.28 1 0 -177
2.51 1 0 -176
1.61 1 0 -175
0.66 1 0 -171
-0.30 1 0 -201
-1.21 1 0 -201
-2.00 1 0 -184
-2.63 1 0 -202
-3.06 1 0 -131
-3.29 1 0 -153
-3.29 1 0 -181
-3.08 1 0 -224
-2.69 1 0 -290
-2.15 1 0 -239
-1.50 1 0 -144
-0.78 1 0 -92
-0.06 1 0 -33
0.64 1 0 -9
1.26 1 0 30
1.77 1 0 71
2.15 1 0 51
2.38 1 0 -27
2.47 0 1 -151
2.41 0 1 -99
2.23 0 1 -247
1.93 0 1 -191
1.56 0 1 -154
1.14 0 1 -147
0.69 0 1 -190
0.25 0 1 -206
-0.17 0 1 -185
-0.54 0 1 -172
-0.85 0 1 -245
-1.09 0 1 -205
-1.27 0 1 -142
-1.38 0 1 -193
-1.44 0 1 -184
-1.45 0 1 -157
-1.94 0 1 -203
-1.94 0 1 -242
-1.63 0 1 -212
-1.63 0 1 -268
-1.30 0 1 -246
-1.30 0 1 -239
-0.97 0 1 -270
-0.97 0 1 -215
-0.66 0 1 -242
-0.66 0 1 -223
-0.39 0 1 -167
-0.39 0 1 -165
-0.18 0 1 -232
-0.18 0 1 -192
-0.05 0 1 -174
-0.05 0 1 -176
0.02 0 1 -173
0.02 0 1 -160
0.02 0 1 -169
0.02 0 1 -159
-0.03 0 1 -162
-0.03 0 1 -216
-0.11 0 1 -154
-0.11 0 1 -183
-0.20 0 1 -154
-0.20 0 1 -129
-0.28 0 1 -107
-0.28 0 1 -135
-0.30 0 1 -158
-0.30 0 1 -173
-0.26 0 1 -156
-0.26 0 1 -134
-0.12 0 1 -139
-0.12 0 1 -139
0.13 0 1 -142
0.13 0 1 -157
0.49 0 1 -160
0.49 0 1 -150
0.95 0 1 -125
0.95 0 1 -138
1.48 0 1 -163
1.48 0 1 -176
2.07 0 1 -171
2.07 0 1 -158
2.67 0 1 -149
2.67 0 1 -152
3.23 0 1 -144
3.23 0 1 -156
3.70 0 1 -155
3.70 0 1 -160
4.04 1 0 -149
4.04 1 0 -165
4.21 1 0 -189
4.21 1 0 -124
4.19 1 0 -113
4.19 1 0 -109
3.97 1 0 -123
3.97 1 0 -116
3.54 1 0 -127
3.54 1 0 -125
2.93 1 0 -156
2.93 1 0 -156
2.17 1 0 -156
2.17 1 0 -159
1.31 1 0 -147
1.31 1 0 -161
0.41 1 0 -158
0.41 1 0 -210
-0.49 1 0 -204
-0.49 1 0 -189
-1.31 1 0 -280
-1.31 1 0 -247
-2.01 1 0 -130
-2.01 1 0 -66
-2.56 1 0 25
-2.56 1 0 39
-2.91 1 0 67
-2.91 1 0 80
-3.07 1 0 51
-3.07 1 0 -8
-3.02 1 0 -105
-3.02 1 0 -257
-2.79 1 0 -156
-2.79 1 0 -96
-2.40 1 0 -15
-2.40 1 0 35
-1.89 1 0 61
-1.89 1 0 71
-1.29 1 0 58
-1.29 1 0 -6
-0.65 1 0 -35
-0.65 1 0 -234
-0.02 1 0 -74
-0.02 1 0 -47
0.57 1 0 25
0.57 1 0 53
1.07 1 0 59
1.07 1 0 79
1.46 1 0 72
1.46 1 0 41
1.73 1 0 -31
1.73 1 0 -46
1.86 1 0 -47
1.86 1 0 -22
1.85 0 1 22
1.85 0 1 54
1.71 0 1 28
1.71 0 1 -35
1.46 0 1 -109
1.46 0 1 -142
1.12 0 1 -279
1.12 0 1 -198
0.71 0 1 -183
0.71 0 1 -230
0.25 0 1 -148
0.25 0 1 -170
-0.22 0 1 -159
-0.22 0 1 -240
-0.67 0 1 -108
-0.67 0 1 -163
-1.10 0 1 -227
-1.10 0 1 -165
-1.47 0 1 -123
-1.47 0 1 -161
-1.78 0 1 -145
-1.78 0 1 -229
-2.01 0 1 -254
-2.01 0 1 -259
-2.15 0 1 -119
-2.15 0 1 -217
-2.21 0 1 -193
-2.21 0 1 -211
-2.19 0 1 -206
-2.19 0 1 -167
-2.09 0 1 -151
-2.09 0 1 -203
-1.93 0 1 -157
-1.93 0 1 -203
-1.73 0 1 -185
-1.73 0 1 -179
-1.48 0 1 -215
-1.48 0 1 -186
-1.23 0 1 -176
-1.23 0 1 -181
-0.98 0 1 -130
-0.98 0 1 -128
-0.75 0 1 -134
-0.75 0 1 -166
-0.57 0 1 -165
-0.57 0 1 -161
-0.44 0 1 -154
-0.44 0 1 -157
-0.37 0 1 -159
-0.37 0 1 -124
-0.38 0 1 -133
-0.38 0 1 -141
-0.46 0 1 -151
-0.46 0 1 -141
-0.61 0 1 -124
-0.61 0 1 -132
-0.81 0 1 -111
-0.81 0 1 -99
-1.04 0 1 -124
-1.04 0 1 -149
-1.28 0 1 -132
-1.28 0 1 -132
-1.50 0 1 -138
-1.50 0 1 -133
-1.66 0 1 -123
-1.66 0 1 -133
-1.73 0 1 -131
-1.73 0 1 -135
-1.69 0 1 -158
-1.69 0 1 -152
-1.51 0 1 -124
-1.51 0 1 -122
-1.18 0 1 -120
-1.18 0 1 -128
-0.70 0 1 -125
-0.70 0 1 -133
-0.09 0 1 -134
-0.09 0 1 -125
0.64 0 1 -145
0.64 0 1 -148
1.44 0 1 -128
1.44 0 1 -136
2.25 0 1 -142
2.25 0 1 -130
3.04 0 1 -137
3.04 0 1 -125
3.73 1 0 -146
3.73 1 0 -136
4.28 1 0 -144
4.28 1 0 -127
4.64 1 0 -130
4.64 1 0 -130
4.78 1 0 -126
4.78 1 0 -124
4.67 1 0 -115
4.67 1 0 -120
4.32 1 0 -103
4.32 1 0 -112
3.76 1 0 -117
3.76 1 0 -105
3.01 1 0 -99
3.01 1 0 -133
2.13 1 0 -140
2.13 1 0 -153
1.19 1 0 -124
1.19 1 0 -159
0.23 1 0 -219
0.23 1 0 -200
-0.66 1 0 -130
-0.66 1 0 -175
-1.43 1 0 -49
-1.43 1 0 -2
-2.04 1 0 16
-2.04 1 0 61
-2.45 1 0 78
-2.45 1 0 89
-2.63 1 0 84
-2.63 1 0 49
-2.60 1 0 -22
-2.60 1 0 -85
-2.36 1 0 -74
-2.36 1 0 7
-1.93 1 0 28
-1.93 1 0 63
-1.37 1 0 76
-1.37 1 0 84
-0.71 1 0 76
-0.71 1 0 48
-0.01 1 0 0
-0.01 1 0 -49
0.69 1 0 -23
0.69 1 0 -10
1.33 1 0 30
1.33 1 0 54
1.88 1 0 27
1.88 1 0 -18
2.29 0 1 8
2.29 0 1 6
2.56 0 1 -69
2.56 0 1 -102
2.67 0 1 -216
2.67 0 1 -199
2.62 0 1 -167
2.62 0 1 -233
2.43 0 1 -268
2.43 0 1 -232
2.11 0 1 -150
2.11 0 1 -215
1.69 0 1 -227
1.69 0 1 -183
1.19 0 1 -238
1.19 0 1 -117
0.66 0 1 -147
0.66 0 1 -140
0.12 0 1 -179
0.12 0 1 -118
-0.40 0 1 -209
-0.40 0 1 -264
-0.88 0 1 -166
-0.88 0 1 -85
-1.29 0 1 -131
-1.29 0 1 -163
-1.63 0 1 -115
-1.63 0 1 -104
-1.89 0 1 -106
-1.89 0 1 -104
-2.07 0 1 -79
-2.07 0 1 -79
-2.16 0 1 -90
-2.16 0 1 -85
-2.19 0 1 -87
-2.19 0 1 -86
-2.15 0 1 -74
-2.15 0 1 -84
-2.06 0 1 -99
-2.06 0 1 -102
-1.94 0 1 -118
-1.94 0 1 -89
-1.79 0 1 -86
-1.79 0 1 -100
-1.62 0 1 -132
-1.62 0 1 -107
-1.44 0 1 -126
-1.44 0 1 -125
-1.27 0 1 -133
-1.27 0 1 -128
-1.10 0 1 -104
-1.10 0 1 -95
-0.94 0 1 -101
-0.94 0 1 -106
-0.81 0 1 -103
-0.81 0 1 -84
-0.70 0 1 -101
-0.70 0 1 -97
-0.62 0 1 -119
-0.62 0 1 -90
-0.57 0 1 -99
-0.57 0 1 -96
-0.57 0 1 -97
-0.57 0 1 -86
-0.61 0 1 -101
-0.61 0 1 -96
-0.69 0 1 -87
-0.69 0 1 -94
-0.81 0 1 -81
-0.81 0 1 -70
-0.97 0 1 -72
-0.97 0 1 -79
-1.15 0 1 -82
-1.15 0 1 -80
-1.34 0 1 -81
-1.34 0 1 -73
-1.51 0 1 -77
-1.51 0 1 -82
-1.64 0 1 -80
-1.64 0 1 -89
-1.72 0 1 -85
-1.72 0 1 -85
-1.71 0 1 -77
-1.71 0 1 -72
-1.59 0 1 -72
-1.59 0 1 -74
-1.36 0 1 -75
-1.36 0 1 -86
-0.99 0 1 -87
-0.99 0 1 -96
-0.50 0 1 -71
-0.50 0 1 -72
0.10 0 1 -79
0.10 0 1 -77
0.78 0 1 -77
0.78 0 1 -85
1.51 0 1 -74
1.51 0 1 -60
2.25 0 1 -69
2.25 0 1 -59
2.94 0 1 -64
2.94 0 1 -69
3.53 0 1 -74
3.53 0 1 -91
3.98 1 0 -104
3.98 1 0 -109
4.24 1 0 -99
4.24 1 0 -98
4.29 1 0 -124
4.29 1 0 -105
4.12 1 0 -142
4.12 1 0 -121
3.73 1 0 -116
3.73 1 0 -129
3.14 1 0 -139
3.14 1 0 -155
2.40 1 0 -162
2.40 1 0 -189
1.54 1 0 -182
1.54 1 0 -197
0.64 1 0 -192
0.64 1 0 -147
-0.26 1 0 -134
-0.26 1 0 -194
-1.08 1 0 -153
-1.08 1 0 -225
-1.78 1 0 -181
-1.78 1 0 -154
-2.32 1 0 -175
-2.32 1 0 -172
-2.66 1 0 15
-2.66 1 0 40
-2.79 1 0 60
-2.79 1 0 74
-2.71 1 0 40
-2.71 1 0 -7
-2.43 1 0 -90
-2.43 1 0 -128
-1.98 1 0 -174
-1.98 1 0 -76
-1.39 1 0 -5
-1.39 1 0 16
-0.72 1 0 49
-0.72 1 0 63
-0.00 1 0 36
-0.00 1 0 -20
0.71 1 0 -123
0.71 1 0 -205
1.38 1 0 -158
1.38 1 0 -108
1.96 1 0 -12
1.96 1 0 19
2.42 0 1 33
2.42 0 1 66
2.74 0 1 43
2.74 0 1 -10
2.92 0 1 -145
2.92 0 1 -207
2.94 0 1 -265
2.94 0 1 -236
2.83 0 1 -165
2.83 0 1 -235
2.58 0 1 -207
2.58 0 1 -219
2.24 0 1 -193
2.24 0 1 -211
1.81 0 1 -197
1.81 0 1 -170
1.34 0 1 -163
1.34 0 1 -158
0.84 0 1 -182
0.84 0 1 -220
0.34 0 1 -218
0.34 0 1 -240
-0.13 0 1 -217
-0.13 0 1 -215
-0.56 0 1 -227
-0.56 0 1 -275
-0.94 0 1 -189
-0.94 0 1 -197
-1.25 0 1 -178
-1.25 0 1 -213
-1.50 0 1 -204
-1.50 0 1 -243
-1.69 0 1 -155
-1.69 0 1 -144
-1.82 0 1 -207
-1.82 0 1 -186
-1.90 0 1 -199
-1.90 0 1 -226
-1.94 0 1 -196
-1.94 0 1 -178
-1.94 0 1 -215
-1.94 0 1 -207
-1.92 0 1 -180
-1.92 0 1 -202
-1.88 0 1 -153
-1.88 0 1 -146
-1.82 0 1 -190
-1.82 0 1 -196
-1.76 0 1 -181
-1.76 0 1 -192
-1.69 0 1 -200
-1.69 0 1 -171
-1.61 0 1 -202
-1.61 0 1 -169
-1.54 0 1 -146
-1.54 0 1 -190
-1.45 0 1 -192
-1.45 0 1 -203
-1.37 0 1 -189
-1.37 0 1 -172
-1.29 0 1 -173
-1.29 0 1 -171
-1.21 0 1 -157
-1.21 0 1 -180
-1.14 0 1 -188
-1.14 0 1 -194
-1.07 0 1 -212
-1.07 0 1 -221
-1.02 0 1 -204
-1.02 0 1 -201
-0.98 0 1 -202
-0.98 0 1 -203
-0.96 0 1 -228
-0.96 0 1 -194
-0.94 0 1 -182
-0.94 0 1 -170
-0.93 0 1 -169
-0.93 0 1 -169
-0.91 0 1 -142
-0.91 0 1 -184
-0.88 0 1 -158
-0.88 0 1 -164
-0.83 0 1 -188
-0.83 0 1 -171
-0.73 0 1 -137
-0.73 0 1 -135
-0.57 0 1 -147
-0.57 0 1 -145
-0.35 0 1 -158
-0.35 0 1 -155
-0.06 0 1 -147
-0.06 0 1 -149
0.31 0 1 -150
0.31 0 1 -154
0.75 0 1 -146
0.75 0 1 -152
1.24 0 1 -144
1.24 0 1 -161
1.76 0 1 -175
1.76 0 1 -153
2.29 0 1 -166
2.29 0 1 -160
2.78 0 1 -152
2.78 0 1 -155
3.21 0 1 -180
3.21 0 1 -154
3.54 0 1 -154
3.54 0 1 -157
3.72 1 0 -154
3.72 1 0 -149
3.75 1 0 -141
3.75 1 0 -152
3.60 1 0 -143
3.60 1 0 -145
3.28 1 0 -145
3.28 1 0 -152
2.79 1 0 -177
2.79 1 0 -161
2.16 1 0 -139
2.16 1 0 -179
1.43 1 0 -172
1.43 1 0 -188
0.64 1 0 -152
0.64 1 0 -154
-0.16 1 0 -166
-0.16 1 0 -166
-0.91 1 0 -174
-0.91 1 0 -198
-1.57 1 0 -136
-1.57 1 0 -170
-2.09 1 0 -212
-2.09 1 0 -195
-2.45 1 0 -229
-2.45 1 0 -169
-2.63 1 0 -19
-2.63 1 0 13
-2.62 1 0 49
-2.62 1 0 61
-2.43 1 0 35
-2.43 1 0 10
-2.08 1 0 -265
-2.08 1 0 -149
-1.59 1 0 -139
-1.59 1 0 -73
-1.02 1 0 -38
-1.02 1 0 15
-0.39 1 0 16
-0.39 1 0 69
0.25 1 0 81
0.25 1 0 83
0.85 1 0 74
0.85 1 0 43
1.38 1 0 -46
1.38 1 0 -110
1.81 1 0 -57
1.81 1 0 -22
2.12 0 1 25
2.12 0 1 43
2.30 0 1 19
2.30 0 1 -55
2.34 0 1 -222
2.34 0 1 -179
2.24 0 1 -182
2.24 0 1 -209
2.04 0 1 -283
2.04 0 1 -242
1.73 0 1 -189
1.73 0 1 -243
1.36 0 1 -233
1.36 0 1 -171
0.94 0 1 -145
0.94 0 1 -181
0.51 0 1 -74
0.51 0 1 -101
0.09 0 1 -124
0.09 0 1 -240
-0.30 0 1 -169
-0.30 0 1 -198
-0.63 0 1 -192
-0.63 0 1 -222
-0.91 0 1 -198
-0.91 0 1 -214
-1.12 0 1 -152
-1.12 0 1 -175
-1.25 0 1 -153
-1.25 0 1 -188
-1.33 0 1 -204
-1.33 0 1 -188
-1.35 0 1 -207
-1.35 0 1 -208
-1.33 0 1 -204
-1.33 0 1 -187
-1.27 0 1 -192
-1.27 0 1 -193
-1.20 0 1 -200
-1.20 0 1 -162
-1.13 0 1 -155
-1.13 0 1 -151
-1.06 0 1 -167
-1.06 0 1 -164
-1.00 0 1 -156
-1.00 0 1 -156
-0.96 0 1 -145
-0.96 0 1 -145
-0.93 0 1 -138
-0.93 0 1 -151
-0.92 0 1 -152
-0.92 0 1 -176
-0.91 0 1 -163
-0.91 0 1 -155
-0.91 0 1 -147
-0.91 0 1 -129
-0.91 0 1 -139
-0.91 0 1 -159
-0.90 0 1 -144
-0.90 0 1 -172
-0.89 0 1 -154
-0.89 0 1 -152
-0.86 0 1 -162
-0.86 0 1 -152
-0.83 0 1 -132
-0.83 0 1 -134
-0.80 0 1 -146
-0.80 0 1 -149
-0.77 0 1 -149
-0.77 0 1 -150
-0.75 0 1 -120
-0.75 0 1 -125
-0.75 0 1 -127
-0.75 0 1 -113
-0.77 0 1 -106
-0.77 0 1 -106
-0.82 0 1 -138
-0.82 0 1 -124
-0.89 0 1 -121
-0.89 0 1 -123
-0.97 0 1 -128
-0.97 0 1 -111
-1.07 0 1 -127
-1.07 0 1 -136
-1.17 0 1 -127
-1.17 0 1 -139
-1.24 0 1 -145
-1.24 0 1 -148
-1.26 0 1 -133
-1.26 0 1 -155
-1.22 0 1 -141
-1.22 0 1 -135
-1.08 0 1 -129
-1.08 0 1 -127
-0.85 0 1 -128
-0.85 0 1 -115
-0.50 0 1 -131
-0.50 0 1 -147
-0.04 0 1 -156
-0.04 0 1 -157
0.53 0 1 -140
0.53 0 1 -112
1.17 0 1 -138
1.17 0 1 -111
1.86 0 1 -117
1.86 0 1 -114
2.55 0 1 -109
2.55 0 1 -120
3.21 0 1 -138
3.21 0 1 -147
3.77 1 0 -182
3.77 1 0 -178
4.19 1 0 -158
4.19 1 0 -182
4.43 1 0 -150
4.43 1 0 -137
4.47 1 0 -157
4.47 1 0 -157
4.29 1 0 -156
4.29 1 0 -148
3.88 1 0 -180
3.88 1 0 -172
3.28 1 0 -163
3.28 1 0 -172
2.51 1 0 -176
2.51 1 0 -197
1.61 1 0 -192
1.61 1 0 -242
0.66 1 0 -202
0.66 1 0 -203
-0.30 1 0 -175
-0.30 1 0 -225
-1.21 1 0 -251
-1.21 1 0 -177
-2.00 1 0 -205
-2.00 1 0 -266
-2.63 1 0 -93
-2.63 1 0 -40
-3.06 1 0 1
-3.06 1 0 31
-3.29 1 0 59
-3.29 1 0 76
-3.29 1 0 53
-3.29 1 0 -8
-3.08 1 0 -72
-3.08 1 0 -239
-2.69 1 0 -107
-2.69 1 0 -42
-2.15 1 0 -36
-2.15 1 0 6
-1.50 1 0 42
-1.50 1 0 67
-0.78 1 0 24
-0.78 1 0 -75
-0.06 1 0 -70
-0.06 1 0 4
0.64 1 0 35
0.64 1 0 46
1.26 1 0 34
1.26 1 0 -46
1.77 1 0 -167
1.77 1 0 -271
2.15 1 0 -138
2.15 1 0 -189
2.38 1 0 -56
2.38 1 0 -22
2.47 0 1 34
2.47 0 1 71
2.41 0 1 42
2.41 0 1 -89
2.23 0 1 -151
2.23 0 1 -304
1.93 0 1 -249
1.93 0 1 -167
1.56 0 1 -188
1.56 0 1 -257
1.14 0 1 -178
1.14 0 1 -180
0.69 0 1 -82
0.69 0 1 -159
0.25 0 1 -181
0.25 0 1 -142
-0.17 0 1 -179
-0.17 0 1 -230
-0.54 0 1 -189
-0.54 0 1 -260
-0.85 0 1 -222
-0.85 0 1 -236
-1.09 0 1 -268
-1.09 0 1 -208
-1.27 0 1 -175
-1.27 0 1 -248
-1.38 0 1 -189
-1.38 0 1 -187
-1.44 0 1 -233
-1.44 0 1 -222
-1.45 0 1 -262
-1.45 0 1 -192
5 Loops Complete both delayed and normal
-1.94 0 1 -193
-1.63 0 1 -166
-1.30 0 1 -158
-0.97 0 1 -151
-0.66 0 1 -160
-0.39 0 1 -159
-0.18 0 1 -177
-0.05 0 1 -142
0.02 0 1 -129
0.02 0 1 -139
-0.03 0 1 -111
-0.11 0 1 -125
-0.20 0 1 -147
-0.28 0 1 -125
-0.30 0 1 -154
-0.26 0 1 -147
-0.12 0 1 -145
0.13 0 1 -153
0.49 0 1 -167
0.95 0 1 -145
1.48 0 1 -162
2.07 0 1 -132
2.67 0 1 -155
3.23 0 1 -158
3.70 0 1 -186
4.04 1 0 -179
4.21 1 0 -197
4.19 1 0 -170
3.97 1 0 -167
3.54 1 0 -170
2.93 1 0 -173
2.17 1 0 -168
1.31 1 0 -198
0.41 1 0 -180
-0.49 1 0 -178
-1.31 1 0 -166
-2.01 1 0 -166
-2.56 1 0 -166
-2.91 1 0 -204
-3.07 1 0 -171
-3.02 1 0 -197
-2.79 1 0 -148
-2.40 1 0 -192
-1.89 1 0 -149
-1.29 1 0 -202
-0.65 1 0 -242
-0.02 1 0 -230
0.57 1 0 -268
1.07 1 0 -195
1.46 1 0 -150
1.73 1 0 11
1.86 1 0 14
1.85 0 1 39
1.71 0 1 67
1.46 0 1 32
1.12 0 1 -69
0.71 0 1 -178
0.25 0 1 -291
-0.22 0 1 -274
-0.67 0 1 -235
-1.10 0 1 -233
-1.47 0 1 -174
-1.78 0 1 -197
-2.01 0 1 -274
-2.15 0 1 -297
-2.21 0 1 -203
-2.19 0 1 -229
-2.09 0 1 -249
-1.93 0 1 -229
-1.73 0 1 -207
-1.48 0 1 -249
-1.23 0 1 -253
-0.98 0 1 -219
-0.75 0 1 -242
-0.57 0 1 -230
-0.44 0 1 -250
-0.37 0 1 -234
-0.38 0 1 -231
-0.46 0 1 -174
-0.61 0 1 -210
-0.81 0 1 -183
-1.04 0 1 -192
-1.28 0 1 -170
-1.50 0 1 -172
-1.66 0 1 -156
-1.73 0 1 -160
-1.69 0 1 -170
-1.51 0 1 -159
-1.18 0 1 -133
-0.70 0 1 -160
-0.09 0 1 -182
0.64 0 1 -178
1.44 0 1 -165
2.25 0 1 -150
3.04 0 1 -157
3.73 1 0 -142
4.28 1 0 -151
4.64 1 0 -144
4.78 1 0 -155
4.67 1 0 -168
4.32 1 0 -184
3.76 1 0 -201
3.01 1 0 -160
2.13 1 0 -154
1.19 1 0 -141
0.23 1 0 -134
-0.66 1 0 -167
-1.43 1 0 -197
-2.04 1 0 -197
-2.45 1 0 -196
-2.63 1 0 -182
-2.60 1 0 -201
-2.36 1 0 -212
-1.93 1 0 -271
-1.37 1 0 -230
-0.71 1 0 -267
-0.01 1 0 -284
0.69 1 0 -114
1.33 1 0 -152
1.88 1 0 -30
2.29 0 1 1
2.56 0 1 27
2.67 0 1 -22
2.62 0 1 -243
2.43 0 1 -289
2.11 0 1 -246
1.69 0 1 -249
1.19 0 1 -280
0.66 0 1 -229
0.12 0 1 -269
-0.40 0 1 -250
-0.88 0 1 -222
-1.29 0 1 -216
-1.63 0 1 -202
-1.89 0 1 -155
-2.07 0 1 -212
-2.16 0 1 -279
-2.19 0 1 -246
-2.15 0 1 -258
-2.06 0 1 -273
-1.94 0 1 -258
-1.79 0 1 -223
-1.62 0 1 -238
-1.44 0 1 -192
-1.27 0 1 -252
-1.10 0 1 -241
-0.94 0 1 -234
-0.81 0 1 -205
-0.70 0 1 -226
-0.62 0 1 -186
-0.57 0 1 -199
-0.57 0 1 -181
-0.61 0 1 -183
-0.69 0 1 -183
-0.81 0 1 -176
-0.97 0 1 -188
-1.15 0 1 -205
-1.34 0 1 -197
-1.51 0 1 -196
-1.64 0 1 -219
-1.72 0 1 -210
-1.71 0 1 -189
-1.59 0 1 -188
-1.36 0 1 -170
-0.99 0 1 -171
-0.50 0 1 -176
0.10 0 1 -173
0.78 0 1 -198
1.51 0 1 -169
2.25 0 1 -164
2.94 0 1 -176
3.53 0 1 -180
3.98 1 0 -158
4.24 1 0 -186
4.29 1 0 -156
4.12 1 0 -156
3.73 1 0 -177
3.14 1 0 -182
2.40 1 0 -185
1.54 1 0 -191
0.64 1 0 -183
-0.26 1 0 -177
-1.08 1 0 -171
-1.78 1 0 -188
-2.32 1 0 -227
-2.66 1 0 -188
-2.79 1 0 -210
-2.71 1 0 -204
-2.43 1 0 -208
-1.98 1 0 -209
-1.39 1 0 -205
-0.72 1 0 -244
-0.00 1 0 -235
0.71 1 0 -276
1.38 1 0 -178
1.96 1 0 -198
2.42 0 1 -77
2.74 0 1 -10
2.92 0 1 -131
2.94 0 1 -226
2.83 0 1 -166
2.58 0 1 -283
2.24 0 1 -209
1.81 0 1 -254
1.34 0 1 -237
0.84 0 1 -206
0.34 0 1 -213
-0.13 0 1 -213
-0.56 0 1 -221
-0.94 0 1 -254
-1.25 0 1 -290
-1.50 0 1 -241
-1.69 0 1 -172
-1.82 0 1 -207
-1.90 0 1 -240
-1.94 0 1 -250
-1.94 0 1 -228
-1.92 0 1 -252
-1.88 0 1 -198
-1.82 0 1 -193
-1.76 0 1 -195
-1.69 0 1 -192
-1.61 0 1 -224
-1.54 0 1 -193
-1.45 0 1 -194
-1.37 0 1 -185
-1.29 0 1 -210
-1.21 0 1 -165
-1.14 0 1 -180
-1.07 0 1 -178
-1.02 0 1 -167
-0.98 0 1 -203
-0.96 0 1 -193
-0.94 0 1 -177
-0.93 0 1 -203
-0.91 0 1 -203
-0.88 0 1 -187
-0.83 0 1 -192
-0.73 0 1 -191
-0.57 0 1 -192
-0.35 0 1 -196
-0.06 0 1 -152
0.31 0 1 -164
0.75 0 1 -158
1.24 0 1 -163
1.76 0 1 -149
2.29 0 1 -151
2.78 0 1 -146
3.21 0 1 -163
3.54 0 1 -168
3.72 1 0 -167
3.75 1 0 -146
3.60 1 0 -140
3.28 1 0 -181
2.79 1 0 -165
2.16 1 0 -189
1.43 1 0 -174
0.64 1 0 -169
-0.16 1 0 -172
-0.91 1 0 -173
-1.57 1 0 -145
-2.09 1 0 -143
-2.45 1 0 -206
-2.63 1 0 -209
-2.62 1 0 -201
-2.43 1 0 -207
-2.08 1 0 -185
-1.59 1 0 -150
-1.02 1 0 -174
-0.39 1 0 -177
0.25 1 0 -231
0.85 1 0 -292
1.38 1 0 -247
1.81 1 0 -95
2.12 1 0 -58
2.30 0 1 -30
2.34 0 1 21
2.24 0 1 -102
2.04 0 1 -275
1.73 0 1 -224
1.36 0 1 -250
0.94 0 1 -192
0.51 0 1 -233
0.09 0 1 -216
-0.30 0 1 -152
-0.63 0 1 -217
-0.91 0 1 -242
-1.12 0 1 -250
-1.25 0 1 -239
-1.33 0 1 -176
-1.35 0 1 -262
-1.33 0 1 -271
-1.27 0 1 -175
-1.20 0 1 -225
-1.13 0 1 -188
-1.06 0 1 -211
-1.00 0 1 -179
-0.96 0 1 -127
-0.93 0 1 -138
-0.92 0 1 -115
-0.91 0 1 -97
-0.91 0 1 -104
-0.91 0 1 -92
-0.90 0 1 -78
-0.89 0 1 -70
-0.86 0 1 -84
-0.83 0 1 -90
-0.80 0 1 -96
-0.77 0 1 -103
-0.75 0 1 -124
-0.75 0 1 -128
-0.77 0 1 -142
-0.82 0 1 -159
-0.89 0 1 -143
-0.97 0 1 -143
-1.07 0 1 -151
-1.17 0 1 -163
-1.24 0 1 -160
-1.26 0 1 -153
-1.22 0 1 -146
-1.08 0 1 -158
-0.85 0 1 -139
-0.50 0 1 -132
-0.04 0 1 -137
0.53 0 1 -169
1.17 0 1 -140
1.86 0 1 -169
2.55 0 1 -158
3.21 0 1 -146
3.77 1 0 -144
4.19 1 0 -168
4.43 1 0 -162
4.47 1 0 -157
4.29 1 0 -145
3.88 1 0 -148
3.28 1 0 -146
2.51 1 0 -153
1.61 1 0 -150
0.66 1 0 -153
-0.30 1 0 -152
-1.21 1 0 -157
-2.00 1 0 -165
-2.63 1 0 -154
-3.06 1 0 -177
-3.29 1 0 -170
-3.29 1 0 -159
-3.08 1 0 -202
-2.69 1 0 -203
-2.15 1 0 -221
-1.50 1 0 -174
-0.78 1 0 -208
-0.06 1 0 -117
0.64 1 0 -118
1.26 1 0 -70
1.77 1 0 15
2.15 1 0 28
2.38 1 0 31
2.47 0 1 67
2.41 0 1 51
2.23 0 1 -15
1.93 0 1 -117
1.56 0 1 -261
1.14 0 1 -261
0.69 0 1 -225
0.25 0 1 -237
-0.17 0 1 -223
-0.54 0 1 -192
-0.85 0 1 -276
-1.09 0 1 -168
-1.27 0 1 -227
-1.38 0 1 -192
-1.44 0 1 -225
-1.45 0 1 -262
-1.94 0 1 -259
-1.94 0 1 -274
-1.63 0 1 -228
-1.63 0 1 -173
-1.30 0 1 -174
-1.30 0 1 -255
-0.97 0 1 -198
-0.97 0 1 -230
-0.66 0 1 -202
-0.66 0 1 -174
-0.39 0 1 -176
-0.39 0 1 -171
-0.18 0 1 -205
-0.18 0 1 -210
-0.05 0 1 -236
-0.05 0 1 -224
0.02 0 1 -246
0.02 0 1 -176
0.02 0 1 -190
0.02 0 1 -165
-0.03 0 1 -218
-0.03 0 1 -181
-0.11 0 1 -169
-0.11 0 1 -149
-0.20 0 1 -185
-0.20 0 1 -179
-0.28 0 1 -167
-0.28 0 1 -186
-0.30 0 1 -187
-0.30 0 1 -184
-0.26 0 1 -177
-0.26 0 1 -156
-0.12 0 1 -178
-0.12 0 1 -174
0.13 0 1 -202
0.13 0 1 -186
0.49 0 1 -199
0.49 0 1 -209
0.95 0 1 -207
0.95 0 1 -168
1.48 0 1 -206
1.48 0 1 -181
2.07 0 1 -201
2.07 0 1 -216
2.67 0 1 -198
2.67 0 1 -207
3.23 0 1 -208
3.23 0 1 -201
3.70 0 1 -202
3.70 0 1 -211
4.04 1 0 -184
4.04 1 0 -221
4.21 1 0 -181
4.21 1 0 -190
4.19 1 0 -216
4.19 1 0 -208
3.97 1 0 -173
3.97 1 0 -196
3.54 1 0 -226
3.54 1 0 -216
2.93 1 0 -206
2.93 1 0 -185
2.17 1 0 -202
2.17 1 0 -217
1.31 1 0 -225
1.31 1 0 -193
0.41 1 0 -183
0.41 1 0 -181
-0.49 1 0 -185
-0.49 1 0 -197
-1.31 1 0 -194
-1.31 1 0 -196
-2.01 1 0 -208
-2.01 1 0 -224
-2.56 1 0 -203
-2.56 1 0 -88
-2.91 1 0 -21
-2.91 1 0 14
-3.07 1 0 66
-3.07 1 0 78
-3.02 1 0 61
-3.02 1 0 -46
-2.79 1 0 -165
-2.79 1 0 -241
-2.40 1 0 -219
-2.40 1 0 -77
-1.89 1 0 -44
-1.89 1 0 12
-1.29 1 0 50
-1.29 1 0 68
-0.65 1 0 29
-0.65 1 0 -77
-0.02 1 0 2
-0.02 1 0 7
0.57 1 0 40
0.57 1 0 67
1.07 1 0 42
1.07 1 0 -51
1.46 1 0 -158
1.46 1 0 -259
1.73 1 0 -295
1.73 1 0 -79
1.86 1 0 -105
1.86 1 0 -12
1.85 0 1 32
1.85 0 1 68
1.71 0 1 36
1.71 0 1 -36
1.46 0 1 -109
1.46 0 1 -290
1.12 0 1 -269
1.12 0 1 -316
0.71 0 1 -303
0.71 0 1 -298
0.25 0 1 -259
0.25 0 1 -211
-0.22 0 1 -322
-0.22 0 1 -227
-0.67 0 1 -311
-0.67 0 1 -239
-1.10 0 1 -225
-1.10 0 1 -198
-1.47 0 1 -185
-1.47 0 1 -325
-1.78 0 1 -273
-1.78 0 1 -282
-2.01 0 1 -258
-2.01 0 1 -263
-2.15 0 1 -196
-2.15 0 1 -138
-2.21 0 1 -193
-2.21 0 1 -187
-2.19 0 1 -188
-2.19 0 1 -183
-2.09 0 1 -146
-2.09 0 1 -182
-1.93 0 1 -160
-1.93 0 1 -169
-1.73 0 1 -128
-1.73 0 1 -161
-1.48 0 1 -176
-1.48 0 1 -158
-1.23 0 1 -141
-1.23 0 1 -162
-0.98 0 1 -154
-0.98 0 1 -156
-0.75 0 1 -135
-0.75 0 1 -152
-0.57 0 1 -164
-0.57 0 1 -167
-0.44 0 1 -162
-0.44 0 1 -158
-0.37 0 1 -132
-0.37 0 1 -163
-0.38 0 1 -155
-0.38 0 1 -147
-0.46 0 1 -165
-0.46 0 1 -173
-0.61 0 1 -176
-0.61 0 1 -140
-0.81 0 1 -139
-0.81 0 1 -122
-1.04 0 1 -137
-1.04 0 1 -165
-1.28 0 1 -143
-1.28 0 1 -145
-1.50 0 1 -155
-1.50 0 1 -169
-1.66 0 1 -164
-1.66 0 1 -172
-1.73 0 1 -178
-1.73 0 1 -162
-1.69 0 1 -213
-1.69 0 1 -133
-1.51 0 1 -142
-1.51 0 1 -155
-1.18 0 1 -142
-1.18 0 1 -133
-0.70 0 1 -140
-0.70 0 1 -142
-0.09 0 1 -130
-0.09 0 1 -161
0.64 0 1 -143
0.64 0 1 -156
1.44 0 1 -193
1.44 0 1 -206
2.25 0 1 -166
2.25 0 1 -202
3.04 0 1 -176
3.04 0 1 -199
3.73 1 0 -190
3.73 1 0 -167
4.28 1 0 -173
4.28 1 0 -168
4.64 1 0 -168
4.64 1 0 -183
4.78 1 0 -198
4.78 1 0 -174
4.67 1 0 -191
4.67 1 0 -175
4.32 1 0 -174
4.32 1 0 -190
3.76 1 0 -194
3.76 1 0 -195
3.01 1 0 -177
3.01 1 0 -167
2.13 1 0 -175
2.13 1 0 -187
1.19 1 0 -205
1.19 1 0 -226
0.23 1 0 -138
0.23 1 0 -229
-0.66 1 0 -247
-0.66 1 0 -296
-1.43 1 0 -145
-1.43 1 0 -138
-2.04 1 0 -57
-2.04 1 0 -44
-2.45 1 0 26
-2.45 1 0 69
-2.63 1 0 80
-2.63 1 0 87
-2.60 1 0 82
-2.60 1 0 55
-2.36 1 0 -10
-2.36 1 0 -197
-1.93 1 0 -85
-1.93 1 0 -60
-1.37 1 0 27
-1.37 1 0 61
-0.71 1 0 73
-0.71 1 0 82
-0.01 1 0 67
-0.01 1 0 23
0.69 1 0 -7
0.69 1 0 -129
1.33 1 0 -50
1.33 1 0 -36
1.88 1 0 33
1.88 1 0 44
2.29 0 1 27
2.29 0 1 -111
2.56 0 1 -227
2.56 0 1 -281
2.67 0 1 -279
2.67 0 1 -286
2.62 0 1 -226
2.62 0 1 -245
2.43 0 1 -188
2.43 0 1 -168
2.11 0 1 -152
2.11 0 1 -155
1.69 0 1 -278
1.69 0 1 -207
1.19 0 1 -189
1.19 0 1 -186
0.66 0 1 -187
0.66 0 1 -297
0.12 0 1 -153
0.12 0 1 -180
-0.40 0 1 -215
-0.40 0 1 -192
-0.88 0 1 -177
-0.88 0 1 -172
-1.29 0 1 -215
-1.29 0 1 -220
-1.63 0 1 -193
-1.63 0 1 -204
-1.89 0 1 -179
-1.89 0 1 -166
-2.07 0 1 -164
-2.07 0 1 -170
-2.16 0 1 -193
-2.16 0 1 -177
-2.19 0 1 -143
-2.19 0 1 -173
-2.15 0 1 -165
-2.15 0 1 -181
-2.06 0 1 -195
-2.06 0 1 -192
-1.94 0 1 -209
-1.94 0 1 -192
-1.79 0 1 -185
-1.79 0 1 -195
-1.62 0 1 -182
-1.62 0 1 -208
-1.44 0 1 -205
-1.44 0 1 -221
-1.27 0 1 -233
-1.27 0 1 -193
-1.10 0 1 -187
-1.10 0 1 -212
-0.94 0 1 -217
-0.94 0 1 -172
-0.81 0 1 -161
-0.81 0 1 -152
-0.70 0 1 -161
-0.70 0 1 -138
-0.62 0 1 -148
-0.62 0 1 -161
-0.57 0 1 -178
-0.57 0 1 -182
-0.57 0 1 -164
-0.57 0 1 -202
-0.61 0 1 -161
-0.61 0 1 -176
-0.69 0 1 -164
-0.69 0 1 -166
-0.81 0 1 -152
-0.81 0 1 -162
-0.97 0 1 -162
-0.97 0 1 -162
-1.15 0 1 -162
-1.15 0 1 -165
-1.34 0 1 -214
-1.34 0 1 -199
-1.51 0 1 -195
-1.51 0 1 -214
-1.64 0 1 -206
-1.64 0 1 -196
-1.72 0 1 -184
-1.72 0 1 -190
-1.71 0 1 -217
-1.71 0 1 -207
-1.59 0 1 -213
-1.59 0 1 -212
-1.36 0 1 -237
-1.36 0 1 -210
-0.99 0 1 -193
-0.99 0 1 -200
-0.50 0 1 -199
-0.50 0 1 -193
0.10 0 1 -187
0.10 0 1 -189
0.78 0 1 -178
0.78 0 1 -186
1.51 0 1 -214
1.51 0 1 -205
2.25 0 1 -190
2.25 0 1 -196
2.94 0 1 -192
2.94 0 1 -162
3.53 0 1 -209
3.53 0 1 -228
3.98 1 0 -227
3.98 1 0 -214
4.24 1 0 -215
4.24 1 0 -205
4.29 1 0 -241
4.29 1 0 -233
4.12 1 0 -199
4.12 1 0 -196
3.73 1 0 -197
3.73 1 0 -210
3.14 1 0 -226
3.14 1 0 -220
2.40 1 0 -216
2.40 1 0 -190
1.54 1 0 -216
1.54 1 0 -205
0.64 1 0 -220
0.64 1 0 -191
-0.26 1 0 -194
-0.26 1 0 -207
-1.08 1 0 -237
-1.08 1 0 -250
-1.78 1 0 -284
-1.78 1 0 -276
-2.32 1 0 -213
-2.32 1 0 -103
-2.66 1 0 -108
-2.66 1 0 -19
-2.79 1 0 12
-2.79 1 0 57
-2.71 1 0 69
-2.71 1 0 78
-2.43 1 0 71
-2.43 1 0 35
-1.98 1 0 -20
-1.98 1 0 -149
-1.39 1 0 -99
-1.39 1 0 -95
-0.72 1 0 -51
-0.72 1 0 22
-0.00 1 0 58
-0.00 1 0 75
0.71 1 0 58
0.71 1 0 1
1.38 1 0 -100
1.38 1 0 -227
1.96 1 0 -94
1.96 1 0 -103
2.42 0 1 -18
2.42 0 1 -17
2.74 0 1 -45
2.74 0 1 -189
2.92 0 1 -309
2.92 0 1 -309
2.94 0 1 -282
2.94 0 1 -228
2.83 0 1 -263
2.83 0 1 -185
2.58 0 1 -247
2.58 0 1 -236
2.24 0 1 -178
2.24 0 1 -219
1.81 0 1 -215
1.81 0 1 -235
1.34 0 1 -220
1.34 0 1 -244
0.84 0 1 -234
0.84 0 1 -238
0.34 0 1 -215
0.34 0 1 -201
-0.13 0 1 -221
-0.13 0 1 -158
-0.56 0 1 -170
-0.56 0 1 -210
-0.94 0 1 -197
-0.94 0 1 -226
-1.25 0 1 -205
-1.25 0 1 -212
-1.50 0 1 -215
-1.50 0 1 -213
-1.69 0 1 -174
-1.69 0 1 -220
-1.82 0 1 -191
-1.82 0 1 -212
-1.90 0 1 -242
-1.90 0 1 -233
-1.94 0 1 -186
-1.94 0 1 -209
-1.94 0 1 -199
-1.94 0 1 -189
-1.92 0 1 -204
-1.92 0 1 -189
-1.88 0 1 -191
-1.88 0 1 -205
-1.82 0 1 -227
-1.82 0 1 -262
-1.76 0 1 -222
-1.76 0 1 -230
-1.69 0 1 -247
-1.69 0 1 -233
-1.61 0 1 -226
-1.61 0 1 -242
-1.54 0 1 -244
-1.54 0 1 -225
-1.45 0 1 -248
-1.45 0 1 -206
-1.37 0 1 -208
-1.37 0 1 -210
-1.29 0 1 -209
-1.29 0 1 -235
-1.21 0 1 -180
-1.21 0 1 -224
-1.14 0 1 -220
-1.14 0 1 -196
-1.07 0 1 -214
-1.07 0 1 -227
-1.02 0 1 -210
-1.02 0 1 -230
-0.98 0 1 -222
-0.98 0 1 -237
-0.96 0 1 -221
-0.96 0 1 -237
-0.94 0 1 -182
-0.94 0 1 -228
-0.93 0 1 -204
-0.93 0 1 -183
-0.91 0 1 -201
-0.91 0 1 -247
-0.88 0 1 -187
-0.88 0 1 -230
-0.83 0 1 -211
-0.83 0 1 -221
-0.73 0 1 -222
-0.73 0 1 -206
-0.57 0 1 -201
-0.57 0 1 -215
-0.35 0 1 -215
-0.35 0 1 -180
-0.06 0 1 -195
-0.06 0 1 -173
0.31 0 1 -172
0.31 0 1 -181
0.75 0 1 -172
0.75 0 1 -187
1.24 0 1 -206
1.24 0 1 -199
1.76 0 1 -203
1.76 0 1 -215
2.29 0 1 -196
2.29 0 1 -229
2.78 0 1 -207
2.78 0 1 -174
3.21 0 1 -148
3.21 0 1 -145
3.54 0 1 -163
3.54 0 1 -173
3.72 1 0 -157
3.72 1 0 -133
3.75 1 0 -158
3.75 1 0 -136
3.60 1 0 -170
3.60 1 0 -159
3.28 1 0 -198
3.28 1 0 -200
2.79 1 0 -194
2.79 1 0 -157
2.16 1 0 -180
2.16 1 0 -178
1.43 1 0 -202
1.43 1 0 -164
0.64 1 0 -183
0.64 1 0 -158
-0.16 1 0 -153
-0.16 1 0 -183
-0.91 1 0 -188
-0.91 1 0 -176
-1.57 1 0 -152
-1.57 1 0 -181
-2.09 1 0 -215
-2.09 1 0 -247
-2.45 1 0 -283
-2.45 1 0 -225
-2.63 1 0 -171
-2.63 1 0 -83
-2.62 1 0 -54
-2.62 1 0 -4
-2.43 1 0 46
-2.43 1 0 57
-2.08 1 0 32
-2.08 1 0 -61
-1.59 1 0 -225
-1.59 1 0 -335
-1.02 1 0 -193
-1.02 1 0 -134
-0.39 1 0 -58
-0.39 1 0 -17
0.25 1 0 21
0.25 1 0 56
0.85 1 0 65
0.85 1 0 78
1.38 1 0 75
1.38 1 0 20
1.81 1 0 -22
1.81 1 0 -162
2.12 0 1 -180
2.12 0 1 -134
2.30 0 1 -143
2.30 0 1 -236
2.34 0 1 -319
2.34 0 1 -219
2.24 0 1 -281
2.24 0 1 -246
2.04 0 1 -311
2.04 0 1 -235
1.73 0 1 -221
1.73 0 1 -222
1.36 0 1 -242
1.36 0 1 -220
0.94 0 1 -224
0.94 0 1 -208
0.51 0 1 -207
0.51 0 1 -322
0.09 0 1 -193
0.09 0 1 -227
-0.30 0 1 -147
-0.30 0 1 -264
-0.63 0 1 -255
-0.63 0 1 -286
-0.91 0 1 -238
-0.91 0 1 -216
-1.12 0 1 -185
-1.12 0 1 -202
-1.25 0 1 -208
-1.25 0 1 -190
-1.33 0 1 -205
-1.33 0 1 -191
-1.35 0 1 -225
-1.35 0 1 -234
-1.33 0 1 -185
-1.33 0 1 -182
-1.27 0 1 -196
-1.27 0 1 -224
-1.20 0 1 -209
-1.20 0 1 -148
-1.13 0 1 -212
-1.13 0 1 -195
-1.06 0 1 -214
-1.06 0 1 -225
-1.00 0 1 -183
-1.00 0 1 -218
-0.96 0 1 -244
-0.96 0 1 -164
-0.93 0 1 -163
-0.93 0 1 -197
-0.92 0 1 -137
-0.92 0 1 -159
-0.91 0 1 -187
-0.91 0 1 -199
-0.91 0 1 -192
-0.91 0 1 -186
-0.91 0 1 -245
-0.91 0 1 -215
-0.90 0 1 -182
-0.90 0 1 -196
-0.89 0 1 -192
-0.89 0 1 -205
-0.86 0 1 -221
-0.86 0 1 -203
-0.83 0 1 -165
-0.83 0 1 -208
-0.80 0 1 -219
-0.80 0 1 -198
-0.77 0 1 -175
-0.77 0 1 -179
-0.75 0 1 -153
-0.75 0 1 -158
-0.75 0 1 -158
-0.75 0 1 -167
-0.77 0 1 -157
-0.77 0 1 -182
-0.82 0 1 -147
-0.82 0 1 -167
-0.89 0 1 -150
-0.89 0 1 -173
-0.97 0 1 -178
-0.97 0 1 -151
-1.07 0 1 -171
-1.07 0 1 -179
-1.17 0 1 -164
-1.17 0 1 -158
-1.24 0 1 -156
-1.24 0 1 -167
-1.26 0 1 -172
-1.26 0 1 -166
-1.22 0 1 -169
-1.22 0 1 -168
-1.08 0 1 -179
-1.08 0 1 -166
-0.85 0 1 -148
-0.85 0 1 -147
-0.50 0 1 -156
-0.50 0 1 -146
-0.04 0 1 -154
-0.04 0 1 -148
0.53 0 1 -147
0.53 0 1 -145
1.17 0 1 -145
1.17 0 1 -158
1.86 0 1 -150
1.86 0 1 -126
2.55 0 1 -111
2.55 0 1 -103
3.21 0 1 -99
3.21 0 1 -115
3.77 1 0 -118
3.77 1 0 -107
4.19 1 0 -114
4.19 1 0 -101
4.43 1 0 -118
4.43 1 0 -135
4.47 1 0 -125
4.47 1 0 -125
4.29 1 0 -122
4.29 1 0 -118
3.88 1 0 -148
3.88 1 0 -143
3.28 1 0 -144
3.28 1 0 -180
2.51 1 0 -169
2.51 1 0 -138
1.61 1 0 -159
1.61 1 0 -157
0.66 1 0 -163
0.66 1 0 -167
-0.30 1 0 -174
-0.30 1 0 -174
-1.21 1 0 -204
-1.21 1 0 -189
-2.00 1 0 -177
-2.00 1 0 -174
-2.63 1 0 -197
-2.63 1 0 -144
-3.06 1 0 -5
-3.06 1 0 9
-3.29 1 0 20
-3.29 1 0 60
-3.29 1 0 74
-3.29 1 0 85
-3.08 1 0 72
-3.08 1 0 0
-2.69 1 0 -112
-2.69 1 0 -166
-2.15 1 0 -91
-2.15 1 0 -43
-1.50 1 0 -13
-1.50 1 0 49
-0.78 1 0 64
-0.78 1 0 79
-0.06 1 0 47
-0.06 1 0 -3
0.64 1 0 -35
0.64 1 0 -203
1.26 1 0 -184
1.26 1 0 -85
1.77 1 0 -49
1.77 1 0 3
2.15 1 0 45
2.15 1 0 73
2.38 1 0 38
2.38 1 0 -22
2.47 0 1 -211
2.47 0 1 -180
2.41 0 1 -292
2.41 0 1 -319
2.23 0 1 -268
2.23 0 1 -259
1.93 0 1 -266
1.93 0 1 -294
1.56 0 1 -256
1.56 0 1 -235
1.14 0 1 -225
1.14 0 1 -258
0.69 0 1 -174
0.69 0 1 -222
0.25 0 1 -177
0.25 0 1 -222
-0.17 0 1 -264
-0.17 0 1 -135
-0.54 0 1 -133
-0.54 0 1 -147
-0.85 0 1 -180
-0.85 0 1 -208
-1.09 0 1 -201
-1.09 0 1 -214
-1.27 0 1 -158
-1.27 0 1 -145
-1.38 0 1 -125
-1.38 0 1 -148
-1.44 0 1 -148
-1.44 0 1 -167
-1.45 0 1 -173
-1.45 0 1 -189
5 Loops Complete both delayed and normal
-1.94 0 1 -163
-1.63 0 1 -192
-1.30 0 1 -171
-0.97 0 1 -193
-0.66 0 1 -169
-0.39 0 1 -196
-0.18 0 1 -155
-0.05 0 1 -190
0.02 0 1 -189
0.02 0 1 -216
-0.03 0 1 -160
-0.11 0 1 -198
-0.20 0 1 -204
-0.28 0 1 -199
-0.30 0 1 -177
-0.26 0 1 -183
-0.12 0 1 -163
0.13 0 1 -169
0.49 0 1 -187
0.95 0 1 -195
1.48 0 1 -202
2.07 0 1 -208
2.67 0 1 -204
3.23 0 1 -183
3.70 0 1 -203
4.04 1 0 -199
4.21 1 0 -221
4.19 1 0 -222
3.97 1 0 -208
3.54 1 0 -206
2.93 1 0 -204
2.17 1 0 -190
1.31 1 0 -197
0.41 1 0 -200
-0.49 1 0 -201
-1.31 1 0 -207
-2.01 1 0 -220
-2.56 1 0 -199
-2.91 1 0 -197
-3.07 1 0 -171
-3.02 1 0 -157
-2.79 1 0 -178
-2.40 1 0 -170
-1.89 1 0 -201
-1.29 1 0 -164
-0.65 1 0 -256
-0.02 1 0 -266

