-0.157909229	-104.989
0.241707024	-103.624
0.564856606	-101.745
0.76990312	-102.696
0.858352473	-102.209
0.866071526	-106.441
0.839114443	-105.643
0.808015919	-103.122
0.774334311	-101.331
0.715522878	-101.354
0.603773469	-103.071
0.427360282	-102.875
0.202709422	-102.358
-0.028745936	-103.273
-0.216685018	-104.683
-0.322614211	-103.867
-0.335402501	-101.042
-0.275196365	-101.435
-0.185041146	-104.001
-0.114698864	-101.596
-0.103596128	-101.297
-0.169158495	-101.924
-0.30394466	-102.848
-0.481431156	-101.217
-0.667278377	-100.49
-0.83123351	-103.281
-0.954833286	-101.399
-1.031748263	-101.294
-1.060643215	-102.575
-1.034064748	-102.344
-0.929810098	-99.157
-0.711867224	-99.468
-0.345141419	-100.363
0.178028551	-100.043
0.808994902	-99.253
1.426120097	-97.517
1.844355336	-98.669
1.857801372	-98.044
1.309524288	-95.63
0.169585216	-98.333
-1.406716496	-101.923
-3.068684999	-102.092
-4.326201176	-99.535
-4.67034493	-100.459
-3.732930141	-100.499
-1.437789573	-101.757
1.912628281	-99.882
5.660989407	-96.929
8.942210019	-91.656
10.92119013	-82.942
11.04699811	-76.371
9.23291822	-82.519
5.892230273	-92.689
1.812014387	-103.707
-2.090164256	-104.617
-5.037520981	-101.941
-6.597833139	-103.988
-6.756901448	-98.693
-5.852926183	-100.622
-4.413575154	-100.134
-2.964865298	-100.561
-1.878633819	-99.021
-1.299933931	-97.909
-1.161016669	-97.867
-1.25863866	-98.329
-1.355406892	-98.467
-1.266320224	-98.302
-0.905362709	-97.698
-0.286907817	-94.341
0.505436123	-93.411
1.360663632	-94.829
2.172897658	-95.18
2.855071089	-93.406
3.33704039	-92.769
3.559823036	-93.399
3.477779415	-95.295
3.073068532	-90.374
2.376243841	-90.571
1.479631327	-94.088
0.530692302	-95.274
-0.29879888	-96.656
-0.859628795	-98.704
-1.070665294	-97.392
-0.944543409	-96.984
-0.582841771	-95.326
-0.142720082	-92.395
0.211850658	-96.476
0.356507589	-95.933
0.235954285	-94.742
-0.129925053	-96.681
-0.66088748	-96.894
-1.243966744	-95.654
-1.76435067	-95.716
-2.131682351	-97.597
-2.296985622	-99.089
-2.258291565	-96.709
-2.055406002	-97.762
-1.756270661	-96.62
-1.438958447	-95.183
-1.173997844	-97.225
-1.010993373	-96.151
-0.971577034	-94.559
-1.048456658	-97.148
-1.208788943	-97.156
-1.399934127	-95.174
-1.556673823	-94.994
-1.610299644	-96.499
-1.500536613	-97.205
-1.190497622	-96.571
-0.683027835	-94.034
-0.034612144	-92.907
0.638809957	-93.209
1.170545549	-94.795
1.371460104	-94.779
1.078432483	-93.093
0.215603503	-91.61
-1.148027714	-96.088
-2.767326729	-97.981
-4.237795451	-98.164
-5.071739287	-95.789
-4.82641874	-96.372
-3.254381929	-95.696
-0.428081898	-96.542
3.213512574	-95.849
6.932215521	-93.046
9.870921445	-84.784
11.29997954	-73.051
10.8474707	-72.941
8.62648157	-81.819
5.205894755	-93.106
1.431166486	-100.842
-1.838882958	-98.257
-3.982120778	-96.966
-4.763702183	-94.086
-4.346035442	-94.432
-3.17322445	-96.325
-1.787661252	-92.35
-0.650510187	-93.579
-0.023282743	-95.174
0.064227997	-93.016
-0.231662928	-94.137
-0.659758993	-93.736
-0.971751309	-93.427
-0.995279749	-93.571
-0.667198398	-91.768
-0.028595659	-91.981
0.805741977	-92.324
1.687382442	-91.484
2.470862658	-89.514
3.039981945	-90.664
3.322471776	-88.362
3.29485609	-89.479
2.97987766	-89.474
2.438063751	-89.476
1.754321206	-90.327
1.020815936	-91.245
0.318766272	-92.754
-0.29673894	-92.67
-0.80441996	-93.279
-1.214054196	-93.457
-1.553667372	-94.134
-1.850953651	-94.937
-2.116058482	-93.18
-2.333149343	-94.084
-2.465293922	-94.61
-2.471753151	-95.246
-2.330937597	-95.13
-2.058723927	-95.426
-1.712719131	-94.17
-1.378598956	-94.597
-1.142651378	-91.438
-1.061393284	-92.238
-1.141144754	-94.35
-1.33645334	-93.671
-1.567987282	-94.541
-1.751903259	-94.239
-1.82786515	-94.893
-1.774089576	-94.994
-1.604387774	-94.126
-1.351027744	-92.219
-1.044136113	-92.207
-0.699868909	-94.044
-0.324722172	-93.274
0.065783513	-91.332
0.424926034	-92.83
0.664542385	-92.525
0.669369415	-93.272
0.338704398	-92.758
-0.355542612	-90.998
-1.317199904	-93.679
-2.307590518	-94.924
-2.98058269	-93.959
-2.972981611	-93.849
-2.029117163	-94.447
-0.118745011	-94.465
2.499585506	-93.276
5.305714674	-91.273
7.641907662	-86.717
8.901911738	-77.916
8.722444567	-76.698
7.106610785	-83.221
4.430413536	-90.636
1.327481754	-97.269
-1.505727605	-97.225
-3.512996716	-96.202
-4.419769647	-94.739
-4.27184254	-94.959
-3.371499797	-95.53
-2.146668445	-93.717
-1.005508889	-92.507
-0.224370267	-94.068
0.102871866	-93.544
0.051192918	-91.982
-0.195766109	-93.706
-0.424428996	-92.375
-0.46147271	-93.137
-0.217454257	-91.895
0.301916795	-91.686
1.011962688	-91.216
1.781555611	-90.539
2.46973032	-89.779
2.956895951	-89.165
3.16557343	-90.036
3.069628024	-88.216
2.69344324	-89.701
2.103291843	-90.178
1.393011284	-90.044
0.665926641	-90.632
0.015372923	-92.101
-0.492950449	-93.106
-0.832926061	-93.151
-1.020870984	-91.754
-1.107841502	-92.602
-1.162868055	-93.546
-1.251439666	-92.453
-1.415232242	-92.703
-1.658988333	-93.212
-1.948597067	-92.964
-2.221267273	-92.924
-2.40508687	-94.776
-2.442288294	-94.2
-2.30916216	-91.935
-2.026252417	-92.507
-1.655021707	-93.394
-1.280911587	-93.669
-0.9868165	-90.482
-0.824566657	-91.269
-0.793998267	-91.411
-0.838422007	-91.435
-0.861166947	-90.625
-0.760995209	-90.531
-0.476543577	-91.578
-0.024353451	-90.686
0.485880944	-90.184
0.870124211	-88.814
0.923725556	-89.041
0.497997288	-89.885
-0.423599275	-90.824
-1.678063293	-90.739
-2.928763939	-91.461
-3.735512598	-91.874
-3.678710577	-91.763
-2.505047968	-92.428
-0.246627709	-92.131
2.735108847	-89.471
5.810344865	-87.818
8.241292238	-81.82
9.397028663	-72.322
8.950669972	-73.623
6.986609918	-80.828
3.975920523	-89.474
0.627725393	-93.585
-2.328283407	-93.77
-4.349262352	-94.411
-5.207034878	-91.904
-5.002755966	-91.351
-4.079484802	-92.089
-2.877665135	-91.277
-1.790133559	-90.259
-1.062296751	-91.498
-0.75837181	-92.006
-0.788341394	-90.461
-0.972462496	-89.583
-1.114919991	-89.786
-1.063695887	-89.292
-0.744575476	-91.064
-0.16789768	-89.575
0.586176807	-88.031
1.395143026	-89.189
2.125802428	-87.771
2.663228555	-87.095
2.932250957	-87.039
2.908565787	-86.681
2.61840354	-87.806
2.127661663	-88.405
1.523516067	-88.706
0.893308695	-89.609
0.306277908	-90.917
-0.19709918	-92.356
-0.60580689	-91.702
-0.930088797	-91.225
-1.188495375	-92.878
-1.395727274	-92.441
-1.555804136	-94.549
-1.662215109	-95.221
-1.703539829	-93.656
-1.671151974	-94.211
-1.565641538	-94.628
-1.399935373	-94.587
-1.198631794	-95.297
-0.993995636	-94.947
-0.819318698	-94.356
-0.700403386	-95.211
-0.646319076	-97.389
-0.641549661	-96.001
-0.642877483	-95.145
-0.584887529	-95.481
-0.396617401	-95.952
-0.02804416	-97.546
0.520270261	-97.333
1.175506758	-96.176
1.790810956	-95.277
2.171044995	-96.823
2.125149151	-95.512
1.534019272	-97.394
0.414390777	-100.153
-1.044410873	-100.317
-2.490812945	-102.447
-3.477761247	-102.05
-3.578396311	-101.79
-2.523809563	-103.586
-0.320660372	-104.457
2.697267651	-103.202
5.915713201	-100.569
8.586114922	-96.047
10.03406861	-87.252
9.862609832	-86.118
8.076978082	-94.329
5.082503919	-102.51
1.554745209	-109.695
-1.769675609	-109.933
-4.304421992	-111.93
-5.754171127	-110.592
-6.145152501	-109.593
-5.751072336	-111.375
-4.956754395	-112.746
-4.116623878	-112.452
-3.456036565	-111.791
-3.038579072	-113.691
-2.794539176	-114.31
-2.585869123	-112.486
-2.276652383	-111.681
-1.784374286	-112.271
-1.100594919	-111.571
-0.283050632	-111.066
0.57021316	-112.471
1.351864266	-112.118
1.971302929	-110.523
2.370264371	-109.999
2.527102626	-111.496
2.452029027	-111.411
2.177250348	-112.909
1.746251223	-113.409
1.20555159	-113.234
0.600482797	-114.569
-0.02548485	-116.894
-0.62981257	-117.015
-1.170768369	-117.668
-1.609868694	-117.448
-1.917166315	-119.779
-2.077873009	-120.255
-2.097465648	-121.287
-2.002316556	-119.474
-1.834323712	-120.128
-1.640454073	-120.705
-1.460375407	-121.256
-1.316338128	-120.928
-1.208770379	-121.375
-1.11901027	-120.431
-1.017983046	-121.118
-0.877338696	-123.138
-0.678511529	-121.962
-0.416053196	-121.688
-0.09444747	-122.226
0.278622177	-121.32
0.69686447	-120.479
1.152398376	-121.282
1.623704573	-119.771
2.059393728	-121.412
2.36843773	-121.896
2.429002015	-121.726
2.122819627	-122.227
1.390681577	-123.262
0.291128821	-122.515
-0.964763134	-122.983
-2.028422756	-125.759
-2.49040998	-125.634
-2.006424591	-126.139
-0.43537847	-126.331
2.062653778	-125.876
5.016129956	-124.765
7.740407787	-121.219
9.524981617	-112.561
9.850687261	-106.025
8.559071222	-112.78
5.908970509	-122.521
2.497002725	-130.647
-0.928647147	-130.547
-3.691935658	-129.217
-5.371170606	-131.027
-5.88276973	-130.454
-5.450720352	-131.009
-4.487139147	-131.216
-3.435299795	-129.102
-2.63074509	-130.049
-2.221272892	-128.526
-2.161098537	-129.397
-2.26839813	-130.909
-2.317038721	-129.488
-2.127115939	-129.141
-1.624974743	-128.426
-0.857877011	-127.916
0.034494163	-127.134
0.875728671	-126.043
1.512989281	-125.086
1.860989454	-124.231
1.9171341	-126.311
1.746938609	-126.254
1.449356396	-125.555
1.117405262	-127.079
0.808896651	-125.904
0.536143218	-125.631
0.27521803	-126.801
-0.011878806	-127.519
-0.352475199	-127.165
-0.745709441	-127.601
-1.158227211	-128.423
-1.533724631	-127.075
-1.811946469	-129.693
-1.949608025	-129.417
-1.935402209	-128.379
-1.793841901	-128.987
-1.577139859	-127.254
-1.348755459	-126.071
-1.164733481	-128.232
-1.058660037	-128.839
-1.033653409	-127.082
-1.062007524	-126.724
-1.091409332	-127.012
-1.056365668	-126.922
-0.893764797	-126.858
-0.56125389	-125.781
-0.055822615	-125.654
0.571964949	-124.322
1.214166931	-124.941
1.717930507	-123.705
1.917085685	-123.34
1.679923755	-123.758
0.962885418	-124.674
-0.146434336	-123.918
-1.415747591	-126.024
-2.498355848	-126.327
-3.01000099	-126.159
-2.638547095	-126.035
-1.256583238	-126.011
1.001979679	-125.316
3.736110379	-123.432
6.35814699	-119.73
8.246008857	-115.842
8.922595796	-107.092
8.20157632	-110.704
6.246010141	-117.656
3.516694929	-123.979
0.628709841	-128.308
-1.831176986	-125.044
-3.461958155	-124.692
-4.13114041	-126.255
-3.965460786	-125.902
-3.266421791	-124.652
-2.389975496	-124.642
-1.634240627	-125.25
-1.167894769	-124.536
-1.012316964	-123.599
-1.071226026	-123.514
-1.188687947	-123.813
-1.212321716	-123.274
-1.04223102	-123.334
-0.654563064	-122.253
-0.098161224	-123.144
0.529300914	-121.416
1.114759133	-119.578
1.561183444	-120.91
1.808192519	-121.434
1.838002337	-119.161
1.668199053	-119.415
1.336892899	-122.023
0.88745475	-121.172
0.358907239	-121.427
-0.215361688	-122.49
-0.802259823	-122.557
-1.362207127	-122.714
-1.846999267	-123.079
-2.206072867	-123.714
-2.400236066	-125.666
-2.417155334	-125.574
-2.280662143	-124.197
-2.0477933	-124.041
-1.792811345	-123.864
-1.583687601	-123.407
-1.460457649	-122.679
-1.424373281	-123.902
-1.442001587	-123.89
-1.461660774	-125.188
-1.434165334	-124.703
-1.328463594	-123.526
-1.136029225	-123.716
-0.864068162	-123.44
-0.523525355	-122.852
-0.120544164	-123.079
0.341869905	-122.962
0.850854757	-122.437
1.365101596	-121.39
1.801466872	-121.942
2.038390421	-122.161
1.943206234	-122.222
1.421339192	-122.177
0.474337896	-124.901
-0.755218784	-123.912
-1.976219593	-124.33
-2.795758852	-125.073
-2.819771413	-126.337
-1.784747665	-126.969
0.321634812	-125.496
3.199668185	-124.397
6.27251724	-122.724
8.821756874	-118.477
10.18909421	-108.746
9.9786055	-106.927
8.186434363	-115.494
5.207856708	-124.329
1.71707096	-129.24
-1.536634891	-129.27
-3.943079082	-129.806
-5.183545947	-129.406
-5.277770821	-129.508
-4.523427611	-130.148
-3.362368052	-129.346
-2.226723666	-128.506
-1.415940638	-127.803
-1.037475736	-126.13
-1.018191379	-129.219
-1.169916718	-129.902
-1.278321124	-127.465
-1.182300892	-127.587
-0.820166259	-127.535
-0.234177369	-126.858
0.459779812	-126.934
1.120454286	-125.259
1.627907754	-124.381
1.913535163	-125.449
1.967123769	-126.839
1.823961768	-125.639
1.541406011	-124.976
1.175932576	-125.926
0.768846874	-126.585
0.343549961	-126.909
-0.087943853	-127.441
-0.514785414	-127.618
-0.919407521	-126.813
-1.276013675	-129.018
-1.556004004	-129.492
-1.737503467	-129.079
-1.814293946	-128.86
-1.799850154	-127.722
-1.724443292	-128.266
-1.626194978	-130.209
-1.539287644	-127.689
-1.483569279	-127.504
-1.459399137	-128.422
-1.44991716	-127.783
-1.430319308	-127.286
-1.380857385	-127.787
-1.298204777	-128.153
-1.199637977	-127.701
-1.116751137	-126.547
-1.079703267	-127.104
-1.09776079	-126.924
-1.14502306	-125.576
-1.159921834	-126.355
-1.062814332	-125.947
-0.788857132	-126.401
-0.325889976	-125.715
0.257664866	-123.943
0.809505029	-123.999
1.123217614	-123.773
0.998997565	-123.491
0.321167259	-123.413
-0.871287777	-124.634
-2.348465509	-126.28
-3.709680264	-126.26
-4.467777495	-126.486
-4.18454514	-124.671
-2.62234708	-125.359
0.137611239	-125.154
3.659529723	-123.159
7.228768153	-119.582
10.03117314	-112.074
11.38639238	-102.715
10.95725589	-103.337
8.858079531	-110.172
5.618640166	-121.019
2.015177143	-125.749
-1.168996175	-124.244
-3.366164167	-123.343
-4.355236326	-123.034
-4.267113302	-121.429
-3.479755481	-122.944
-2.454994231	-120.643
-1.580788972	-121.264
-1.069367719	-122.118
-0.933219609	-120.525
-1.030566492	-120.196
-1.150774288	-121.101
-1.103438971	-118.453
-0.781625134	-118.601
-0.184643026	-119.458
0.597924158	-116.383
1.427119275	-113.945
2.161734355	-117.224
2.695358543	-114.657
2.974363136	-113.194
2.996458411	-114.853
2.796048998	-113.736
2.425277714	-114.396
1.938343386	-114.321
1.382871562	-113.897
0.797962086	-113.892
0.215913153	-116.442
-0.335671595	-116.131
-0.833182311	-115.468
-1.257577521	-116.074
-1.595061709	-117.673
-1.836997813	-116.699
-1.979329863	-114.684
-2.022702136	-114.804
-1.97421179	-117.548
-1.85024618	-116.306
-1.67815126	-115.112
-1.494036807	-115.234
-1.33561014	-113.724
-1.231833361	-114.351
-1.193635181	-112.709
-1.210239629	-113.996
-1.253503163	-113.855
-1.289060144	-114.499
-1.2899438	-112.665
-1.247233899	-112.087
-1.173576054	-113.422
-1.098292852	-112.288
-1.05587473	-111.108
-1.071751109	-112.083
-1.149917787	-112.714
-1.266377065	-111.24
-1.370896009	-110.461
-1.397750607	-112.422
-1.284139566	-111.256
-0.992913847	-109.807
-0.534315702	-108.716
0.020092759	-109.241
0.538537726	-108.845
0.850751211	-108.359
0.791313814	-107.38
0.258234929	-107.98
-0.728192473	-110.159
-1.987686419	-109.684
-3.185262391	-108.442
-3.892813227	-107.915
-3.702751356	-110.641
-2.367231434	-108.851
0.082036293	-109.124
3.283138745	-106.436
6.596609152	-103.884
9.261083065	-98.369
10.61011461	-86.544
10.27781164	-85.731
8.317846007	-97.78
5.18962002	-104.941
1.615804061	-108.427
-1.635545361	-107.544
-3.965675061	-107.772
-5.085916219	-108.22
-5.04821854	-106.297
-4.172145538	-105.766
-2.908278499	-105.878
-1.690754383	-106.112
-0.823950907	-105.467
-0.428024688	-103.266
-0.445444384	-102.342
-0.693682783	-103.346
-0.940981765	-102.425
-0.981746922	-102.074
-0.693030148	-103.666
-0.061151203	-102.069
0.824031129	-100.057
1.801730677	-98.456
2.688178621	-98.413
3.325491755	-98.127
3.618188592	-95.076
3.548851779	-96.808
3.171314038	-98.388
2.586491986	-97.201
1.910444425	-97.116
1.245096063	-98.87
0.65942075	-99.112
0.184078453	-98.386
-0.182453516	-98.952
-0.461496741	-98.759
-0.681394153	-99.115
-0.868338413	-99.659
-1.041762263	-99.719
-1.212796388	-100.36
-1.38373253	-99.689
-1.547741648	-97.444
-1.68994438	-98.267
-1.791533457	-99.644
-1.837155177	-99.812
-1.823059007	-100.407
-1.761720889	-98.184
-1.679458488	-98.024
-1.60693447	-98.42
-1.566497506	-97.714
-1.562570015	-97.278
-1.580276391	-97.162
-1.593574275	-98.672
-1.579275291	-98.472
-1.530061955	-96.84
-1.459705601	-97.492
-1.397219752	-96.732
-1.371919471	-96.299
-1.395735878	-95.334
-1.450626115	-96.862
-1.487031149	-98.011
-1.435210808	-96.551
-1.226874127	-95.442
-0.821362144	-94.507
-0.229148466	-94.323
0.474780755	-93.881
1.154243112	-93.975
1.636010884	-92.842
1.754144525	-92.463
1.406795689	-92.949
0.610202063	-92.766
-0.470238347	-94.505
-1.530577704	-94.055
-2.189883883	-93.568
-2.095392399	-94.125
-1.044709088	-94.018
0.915634459	-95.471
3.457119553	-93.324
6.027072951	-90.862
7.991423534	-83.174
8.821228051	-76.711
8.258786869	-79.676
6.401350017	-84.584
3.66980382	-93.874
0.674418404	-98.103
-1.970753343	-94.766
-3.816927022	-94.746
-4.677904882	-95.352
-4.633618604	-94.342
-3.954514004	-94.754
-2.985987939	-95.862
-2.037360952	-93.178
-1.308188531	-93.517
-0.864600913	-94
-0.659351689	-93.005
-0.57782232	-91.589
-0.490071183	-90.229
-0.293716468	-90.974
0.06027251	-91.328
0.560497601	-90.839
1.144426031	-90.963
1.719497407	-89.168
2.189938886	-87.781
2.482093284	-87.967
2.561248214	-87.269
2.435325978	-88.154
2.145222859	-88.684
1.746529192	-88.687
1.290567427	-89.96
0.812482968	-88.972
0.330446658	-89.101
-0.14543816	-90.134
-0.600575896	-90.079
-1.007320285	-89.456
-1.325899184	-91.573
-1.515448438	-91.764
-1.550594933	-90.958
-1.435976226	-90.591
-1.21154654	-90.082
-0.945192822	-89.992
-0.714365276	-89.694
-0.582923662	-89.079
-0.581478623	-88.77
-0.698437798	-89.036
-0.885159699	-88.367
-1.073466936	-90.889
-1.19922388	-89.506
-1.22353995	-88.207
-1.14427258	-89.165
-0.994353376	-89.039
-0.828408058	-88.362
-0.703219632	-86.323
-0.659328667	-88.423
-0.710002658	-88.819
-0.840544116	-86.729
-1.016826622	-87.319
-1.198617537	-87.777
-1.351830047	-89.086
-1.454794243	-87.438
-1.496610892	-86.319
-1.469567182	-87.92
-1.360856014	-87.082
-1.149920155	-86.642
-0.815861909	-85.309
-0.354865877	-84.866
0.198103009	-85.417
0.753773262	-83.746
1.171017215	-83.817
1.285353397	-84.6
0.962668274	-82.737
0.165451292	-84.176
-0.991690773	-85.216
-2.22450053	-84.736
-3.120315884	-84.044
-3.241265615	-84.197
-2.267879198	-85.042
-0.138530195	-86.016
2.870271877	-82.518
6.166931081	-81.191
8.982545455	-76.239
10.58996123	-64.912
10.53232077	-63.093
8.776843305	-67.891
5.732542654	-79.254
2.121812809	-87.554
-1.246885297	-84.733
-3.720774088	-83.835
-4.973472658	-85.149
-5.05254203	-83.966
-4.302137044	-83.104
-3.204013779	-81.394
-2.202819199	-80.562
-1.576710701	-81.509
-1.388159726	-82.669
-1.515582736	-82.821
-1.738331954	-81.291
-1.834914238	-80.062
-1.658735979	-79.697
-1.171831604	-78.579
-0.436147602	-77.486
0.42377392	-77.806
1.267290645	-78.186
1.976470697	-75.407
2.477680614	-72.757
2.74462043	-75.479
2.787758124	-75.429
2.63814527	-73.091
2.333234046	-74.131
1.909329434	-74.809
1.40117519	-74.134
0.845643141	-74.806
0.284935777	-74.963
-0.23444502	-76.074
-0.668071681	-75.55
-0.983310166	-76.425
-1.168275737	-75.661
-1.235758581	-76.773
-1.219705195	-74.484
-1.164854759	-74.972
-1.112955602	-75.289
-1.090412053	-74.277
-1.101708357	-75.031
-1.130842571	-74.426
-1.150161731	-73.095
-1.133398846	-74.096
-1.068142407	-73.352
-0.962919747	-74.196
-0.845752331	-72.937
-0.754170194	-72.192
-0.720284852	-71.809
-0.757083386	-71.125
-0.852195209	-72.522
-0.972548864	-71.854
-1.078553572	-70.537
-1.141766012	-71.906
-1.157655729	-72.162
-1.146455845	-71.878
-1.140065887	-70.349
-1.159752113	-68.322
-1.194963933	-70.453
-1.195020473	-70.787
-1.081400055	-68.664
-0.780038351	-68.268
-0.263601536	-69.08
0.412981696	-68.199
1.101317531	-66.501
1.584186516	-65.464
1.635826702	-65.349
1.103861586	-65.341
-0.012296845	-66.5
-1.515947893	-67.663
-3.024591086	-68.879
-4.047789377	-67.541
-4.119656633	-67.788
-2.952326995	-67.924
-0.561698555	-67.067
2.683884945	-65.653
6.123101733	-62.425
8.965545395	-57.206
10.51578476	-45.986
10.38395544	-44.777
8.606704222	-51.935
5.631916073	-61.646
2.172080133	-68.176
-1.018192652	-66.512
-3.358393511	-65.228
-4.578619675	-62.546
-4.740250767	-65.194
-4.151465457	-64.458
-3.223741178	-63.595
-2.327525937	-63.46
-1.693895925	-63.416
-1.383434373	-61.536
-1.316234887	-62.919
-1.338025893	-62.831
-1.291707033	-59.601
-1.06998727	-59.662
-0.638018693	-59.66
-0.028302006	-58.311
0.681370931	-58.427
1.394387289	-56.966
2.017180338	-55.891
2.473165915	-56.33
2.710092639	-55.524
2.703934139	-54.814
2.461293372	-54.289
2.019692181	-54.703
1.443245752	-54.749
0.811677934	-55.133
0.203508565	-56.696
-0.322033004	-57.859
-0.737626101	-56.822
-1.049377461	-56.476
-1.285973585	-56.082
-1.47981303	-56.302
-1.648436059	-56.962
-1.784755687	-56.365
-1.860754112	-55.175
-1.843158108	-57.605
-1.713940541	-56.885
-1.485921627	-55.032
-1.205541987	-55.289
-0.940377758	-53.461
-0.755780336	-54.561
-0.690141314	-54.122
-0.739447311	-53.478
-0.858397528	-51.663
-0.978609286	-53.392
-1.036921071	-56.001
-1.001715388	-54.008
-0.885147621	-51.866
-0.734837696	-52.829
-0.607869972	-52.177
-0.538702741	-51.288
-0.516579768	-51.257
-0.485038009	-50.71
-0.366960991	-51.731
-0.106932143	-51.927
0.286669144	-50.78
0.72003847	-50.146
1.027227432	-49.467
1.020230955	-48.313
0.562919843	-49.464
-0.355767578	-49.868
-1.577818424	-51.656
-2.783846123	-51.101
-3.560371725	-52.547
-3.514959583	-52.611
-2.40861377	-50.187
-0.263097823	-49.446
2.598273928	-49.681
5.601734628	-46.461
8.062551596	-42.722
9.376244868	-34.509
9.200419587	-30.899
7.562834093	-38.388
4.85431228	-46.602
1.707130572	-51.066
-1.19715963	-52.429
-3.321413277	-51.482
-4.402874008	-49.428
-4.483460097	-48.902
-3.843942614	-51.121
-2.878081605	-50.183
-1.956772891	-48.806
-1.326201028	-48.767
-1.064361133	-47.38
-1.09689825	-49.568
-1.254685867	-49.146
-1.346856557	-47.429
-1.224611821	-46.686
-0.819962737	-46.704
-0.154747792	-46.606
0.675467926	-46.492
1.5328916	-44.491
2.273654389	-43.352
2.779626933	-43.488
2.980008002	-42.718
2.860194847	-43.291
2.458459292	-43.965
1.85312828	-43.517
1.144107728	-43.523
0.432818459	-46.142
-0.19575755	-45.821
-0.685953161	-46.054
-1.017279494	-46.076
-1.202668886	-46.416
-1.279979755	-47.584
-1.299032147	-46.111
-1.307415855	-46.452
-1.338575479	-45.795
-1.405006362	-46.512
-1.497829691	-46.845
-1.592039336	-46.789
-1.655150216	-47.456
-1.656510862	-45.691
-1.575210735	-45.439
-1.405653043	-47.026
-1.160609288	-46.411
-0.871511215	-44.086
-0.585187095	-45.737
-0.355988171	-45.612
-0.232989775	-45.006
-0.243903048	-44.722
-0.379967125	-44.61
-0.588159133	-45.217
-0.777027798	-44.173
-0.839309411	-44.918
-0.688488835	-45.193
-0.299439376	-44.544
0.261885108	-43.987
0.835121877	-44.666
1.197983708	-43.719
1.132435199	-42.904
0.508596258	-42.44
-0.640626932	-44.932
-2.084338026	-45.606
-3.420346494	-47.251
-4.168403745	-46.272
-3.911254839	-46.714
-2.443429707	-47.366
0.123188252	-46.955
3.341843439	-42.135
6.521625071	-40.556
8.909394048	-35.86
9.90916213	-26.51
9.264864414	-27.302
7.140129886	-36.34
4.064340242	-45.692
0.764359257	-47.802
-2.05597529	-46.674
-3.910053266	-47.119
-4.633627815	-46.669
-4.376800833	-46.626
-3.50181538	-45.216
-2.435290072	-44.738
-1.530617335	-46.311
-0.982222571	-44.976
-0.807592223	-45.947
-0.887258895	-44.302
-1.036455983	-44.62
-1.078536921	-44.572
-0.897542072	-43.796
-0.460124834	-44.128
0.190513141	-42.276
0.958228462	-41.706
1.722967763	-42.131
2.366387274	-41.822
2.790549591	-40.849
2.930442404	-40.407
2.762372999	-40.66
2.308789616	-41.261
1.63758887	-41.102
0.85281781	-40.554
0.075328059	-43.14
-0.583939608	-45.672
-1.050868758	-45.836
-1.30602533	-43.276
-1.386285056	-43.981
-1.368770582	-44.79
-1.342417432	-45.069
-1.377236719	-44.309
-1.502080163	-43.165
-1.69829166	-44.852
-1.910525122	-46.537
-2.069661752	-45.487
-2.118687058	-45.324
-2.032134816	-44.574
-1.82309077	-44.701
-1.536988195	-45.229
-1.236138111	-44.425
-0.981326746	-42.399
-0.816345106	-43.692
-0.758727966	-45.271
-0.796880529	-44.277
-0.891913008	-44.396
-0.982821284	-43.807
-0.995531493	-43.087
-0.85780164	-42.738
-0.520993275	-43.891
0.014272425	-43.032
0.676910118	-42.303
1.320429948	-42.784
1.744616994	-41.46
1.74668591	-41.944
1.19297612	-41.046
0.09041515	-42.432
-1.36968025	-44.429
-2.820218709	-45.444
-3.790867585	-44.677
-3.834830169	-44.464
-2.67741748	-47.07
-0.338189075	-45.903
2.822154652	-42.052
6.160224564	-40.152
8.909092861	-35.859
10.39432016	-25.854
10.23592176	-25.08
8.464369859	-32.507
5.507595371	-42.267
2.054073577	-46.951
-1.156473299	-44.762
-3.53913335	-46.974
-4.798719995	-45.867
-4.959052359	-45.961
-4.294136798	-45.434
-3.20113557	-45.036
-2.066703262	-44.844
-1.168975653	-45.374
-0.63538607	-44.909
-0.452983313	-43.698
-0.512259376	-43.477
-0.661382936	-42.542
-0.753171981	-43.174
-0.676737489	-43.052
-0.373995388	-42.256
0.154926438	-43.394
0.853913432	-42.474
1.619866192	-41.045
2.31946099	-41.047
2.813973603	-39.442
2.989415892	-40.092
2.785512953	-39.874
2.21491819	-39.669
1.365167853	-40.635
0.380433066	-42.719
-0.573283715	-44.326
-1.34980047	-44.613
-1.858609101	-43.861
-2.083836844	-44.469
-2.080742236	-45.895
-1.951568149	-44.261
-1.80920253	-44.225
-1.740774743	-44.136
-1.782917162	-44.185
-1.91612755	-44.297
-2.078943016	-46.052
-2.195833367	-45.127
-2.208243182	-44.34
-2.097550472	-44.437
-1.891900832	-45.539
-1.654656142	-44.632
-1.458631255	-44.427
-1.355385661	-43.229
-1.350946188	-42.612
-1.397582015	-45.284
-1.405996828	-45.297
-1.275291661	-43.361
-0.931797202	-43.544
-0.364495674	-44.336
0.35490177	-41.107
1.075537454	-41.367
1.597209858	-42.971
1.72226898	-40.92
1.318928729	-40.707
0.380051722	-43.837
-0.941094844	-44.367
-2.334844464	-44.924
-3.388300832	-45.322
-3.684174296	-44.569
-2.925425483	-44.366
-1.050805659	-45.211
1.700512568	-45.562
4.809329124	-42.647
7.59166168	-38.148
9.383670453	-30.584
9.739090227	-23.971
8.569167384	-31.584
6.171161753	-39.455
3.132473212	-46.275
0.145848093	-47.563
-2.195507862	-45.944
-3.550701717	-46.425
-3.885824488	-44.665
-3.425996559	-44.822
-2.537506759	-45.506
-1.591373584	-46.975
-0.855889081	-45.05
-0.445768812	-44.182
-0.330513022	-45.719
-0.384680161	-44.704
-0.453632027	-44.267
-0.410286177	-44.658
-0.187948066	-43.784
0.213812554	-44.011
0.743704263	-43.602
1.322575618	-42.604
1.866202063	-42.547
2.300882496	-42.68
2.570937116	-43.197
2.640896888	-41.862
2.496079234	-41.092
2.143635621	-43.831
1.613547811	-42.856
0.95725184	-42.973
0.24169974	-44.821
-0.461359928	-45.966
-1.088454836	-46.996
-1.595658046	-47.452
-1.964208296	-46.356
-2.198925261	-47.042
-2.320866745	-47.61
-2.357737099	-47.912
-2.335709981	-48.193
-2.274828721	-47.849
-2.188121226	-48.107
-2.083160977	-47.801
-1.964508559	-47.701
-1.835985338	-47.416
-1.702358566	-47.277
-1.57019208	-47.215
-1.447321131	-47.87
-1.340202885	-48.409
-1.249001811	-48.114
-1.161915248	-46.183
-1.052184598	-46.621
-0.881977693	-47.456
-0.615577019	-47.21
-0.240050131	-46.146
0.213573882	-46.673
0.659063785	-45.963
0.963590965	-47.345
0.980649362	-46.116
0.60252441	-44.899
-0.182440759	-47.145
-1.249182988	-49.154
-2.33298061	-49.213
-3.076589297	-48.602
-3.123908396	-48.382
-2.237925218	-49.234
-0.405701476	-50.549
2.110950937	-48.405
4.808784693	-45.282
7.06331705	-43.362
8.305119397	-34.844
8.194748858	-32.469
6.732955856	-38.891
4.263373675	-47.706
1.365040908	-53.658
-1.325624794	-51.089
-3.298531288	-51.502
-4.296688854	-52.691
-4.350032259	-51.821
-3.71732638	-51.481
-2.768538545	-52.614
-1.854812366	-51.222
-1.209129803	-51.817
-0.90306848	-51.06
-0.862477761	-51.422
-0.925758029	-51.866
-0.918114374	-52.864
-0.715184901	-51.465
-0.277879583	-50.706
0.347071384	-51.564
1.054276849	-50.386
1.720277494	-49.959
2.241713219	-50.792
2.559133759	-50.141
2.66169236	-49.507
2.575472695	-51.6
2.343487498	-52.096
2.006923187	-52.199
1.59485675	-52.373
1.124732863	-53.539
0.610632814	-54.288
0.073109879	-54.211
-0.455595494	-57.19
-0.934145253	-57.662
-1.321443954	-58.307
-1.588362761	-58.494
-1.726557049	-58.999
-1.750667082	-60.281
-1.693199755	-59.234
-1.594313976	-60.473
-1.490402513	-61.027
-1.40535805	-61.484
-1.347023014	-61.279
-1.309237035	-62.096
-1.277838946	-61.347
-1.237551147	-63.256
-1.176375825	-64.537
-1.085346981	-64.531
-0.954152427	-63.631
-0.766325285	-63.488
-0.499589757	-64.104
-0.135714347	-64.142
0.320571982	-65.191
0.82065085	-65.626
1.26107968	-65.904
1.494547566	-65.989
1.368037874	-65.084
0.782139679	-66.901
-0.246423165	-69.505
-1.544155713	-70.073
-2.785631699	-70.796
-3.555896976	-72.874
-3.463265969	-72.347
-2.273899827	-72.282
-0.023868326	-74.136
2.937513434	-73.137
6.002777218	-70.026
8.456887144	-65.496
9.682266179	-57.031
9.349868243	-57.77
7.525965409	-65.86
4.652287548	-74.124
1.404969822	-79.173
-1.51546091	-79.919
-3.586209531	-80.177
-4.587311951	-80.543
-4.615163241	-80.043
-3.99432951	-79.201
-3.132505599	-80.394
-2.376650519	-81.828
-1.918143795	-81.7
-1.769208667	-81.517
-1.804155239	-81.826
-1.838168087	-83.626
-1.709194194	-82.187
-1.334672994	-81.327
-0.729434534	-80.316
0.012814384	-82.359
0.760352492	-80.802
1.388425184	-80.162
1.813052148	-80.521
2.005625782	-81.481
1.988297336	-81.186
1.816093271	-80.766
1.554181792	-81.555
1.25791975	-82.052
0.960519748	-83.131
0.669893912	-83.156
0.373545522	-82.914
0.048762479	-83.801
-0.325203057	-85.724
-0.756106732	-85.119
-1.231414605	-85.212
-1.716573765	-85.392
-2.15968867	-87.032
-2.50203527	-87.44
-2.69218622	-87.591
-2.700172804	-86.846
-2.527709364	-87.419
-2.211301174	-86.508
-1.816768999	-86.18
-1.425804913	-86.066
-1.117136626	-86.416
-0.946406122	-84.897
-0.929707482	-84.075
-1.03557637	-85.547
-1.188841539	-85.992
-1.287224085	-85.072
-1.228416882	-84.872
-0.942305313	-83.749
-0.420605996	-83.432
0.265006237	-83.787
0.964632715	-81.805
1.476991158	-81.517
1.600593393	-81.693
1.20025612	-81.621
0.271612047	-81.438
-1.018875365	-83.174
-2.339535058	-82.265
-3.256039677	-82.805
-3.344699377	-84.901
-2.329721742	-80.99
-0.201509609	-81.409
2.730374196	-82.77
5.881364218	-78.521
8.533732281	-70.989
10.03864306	-62.171
10.01213701	-61.421
8.454318041	-68.784
5.746481448	-76.363
2.527072525	-81.061
-0.506292267	-79.579
-2.796026407	-79.555
-4.0578477	-79.027
-4.312316235	-78.037
-3.819623454	-78.865
-2.955061339	-77.786
-2.075733571	-77.563
-1.421959342	-76.216
-1.076451483	-75.367
-0.980859668	-76.195
-0.991366156	-74.671
-0.94729007	-73.485
-0.729057777	-72.001
-0.290987649	-72.711
0.334610979	-71.873
1.056474574	-69.679
1.756018486	-68.884
2.320274117	-68.002
2.667298112	-66.881
2.759364921	-67.616
2.603514045	-66.955
2.242180054	-65.736
1.738157758	-65.777
1.158283593	-66.833
0.559588355	-67.091
-0.01923588	-66.012
-0.559413561	-68.104
-1.056791572	-68.117
-1.511929582	-65.546
-1.919740449	-66.307
-2.263378196	-66.444
-2.515477354	-66.565
-2.646531456	-68.433
-2.636782375	-65.797
-2.486372544	-64.933
-2.219532624	-63.719
-1.881428636	-63.784
-1.529171294	-62.827
-1.219940163	-62.61
-0.998992938	-61.577
-0.889413956	-61.229
-0.884911713	-61.013
-0.947249168	-59.805
-1.010486483	-59.102
-0.994061006	-59.353
-0.824912853	-59.189
-0.465327319	-56.679
0.061031043	-56.446
0.655374859	-57.146
1.152504809	-55.457
1.357263239	-54.134
1.104917747	-54.863
0.330753224	-54.383
-0.874436855	-54.34
-2.248069933	-54.516
-3.39597571	-56.651
-3.88935575	-56.134
-3.397138378	-54.579
-1.813755813	-54.641
0.664793963	-54.202
3.553680295	-51.473
6.190711463	-46.091
7.920080983	-40.131
8.290325958	-33.121
7.196676092	-38.576
4.914303072	-46.074
2.008931097	-52.913
-0.841882984	-51.734
-3.050742821	-50.964
-4.275092121	-51.372
-4.477731162	-49.217
-3.885434934	-47.773
-2.874499496	-48.982
-1.832185693	-47.856
-1.042206969	-46.657
-0.625192038	-45.397
-0.541075043	-45.662
-0.639354647	-45.739
-0.731427887	-44.559
-0.658386427	-43.302
-0.33538078	-42.365
0.234723517	-42.366
0.974905828	-41.15
1.764498165	-40.14
2.474453596	-39.482
2.997185061	-36.652
3.26495908	-37.393
3.255468056	-38.069
2.98696513	-37.268
2.507363384	-36.197
1.881744315	-37.181
1.181287349	-38.009
0.474717784	-38.041
-0.178066821	-38.221
-0.731006823	-38.282
-1.155915956	-38.332
-1.445042873	-38.992
-1.610934446	-39.13
-1.682405726	-37.876
-1.696461141	-37.995
-1.687731833	-36.572
-1.678552414	-38.128
-1.673287056	-37.624
-1.659465275	-35.004
-1.615907772	-36.184
-1.525088508	-36.442
-1.384624103	-35.728
-1.212213991	-35.839
-1.040361113	-34.674
-0.901516391	-33.431
-0.809320483	-33.507
-0.744974792	-34.085
-0.657424844	-32.015
-0.481401525	-32.093
-0.169752498	-32.318
0.271250201	-32.052
0.75942085	-31.333
1.14134407	-30.316
1.23057921	-30.031
0.873179674	-29.362
0.021513138	-29.97
-1.210604235	-31.791
-2.537597311	-31.893
-3.55180769	-32.178
-3.82932944	-31.572
-3.066500846	-32.814
-1.204629141	-31.224
1.504063573	-28.979
4.523706461	-28.104
7.160863612	-24.943
8.758283952	-14.949
8.89471561	-11.109
7.519817276	-15.946
4.972537286	-25.251
1.873951512	-31.821
-1.066350875	-31.539
-3.259402573	-30.987
-4.388953298	-29.52
-4.46138918	-27.989
-3.750234365	-28.826
-2.669198907	-28.563
-1.62632717	-27.698
-0.908265915	-26.202
-0.624008839	-28.024
-0.712364301	-26.486
-0.996831966	-26.25
-1.261337144	-26.623
-1.320949719	-25.239
-1.069924623	-24.379
-0.500177653	-25.464
0.307517336	-24.592
1.211781957	-22.651
2.048530872	-21.502
2.669152509	-20.855
2.971352839	-20.439
2.917422092	-21.028
2.537404517	-20.964
1.917524801	-18.864
1.177054422	-21.777
0.439272942	-23.49
-0.196279158	-22.721
-0.673196231	-22.292
-0.984439264	-22.894
-1.164515005	-23.199
-1.27100184	-22.926
-1.361912074	-22.307
-1.476215347	-22.791
-1.623257473	-22.65
-1.783465765	-23.02
-1.918857978	-22.38
-1.988812825	-22.882
-1.965314657	-22.909
-1.842745968	-21.741
-1.63975429	-21.986
-1.393656042	-20.331
-1.150038204	-20.464
-0.950935106	-21.566
-0.824313559	-20.447
-0.776462821	-19.569
-0.788232044	-20.756
-0.816231746	-19.672
-0.800542499	-19.134
-0.680037486	-18.687
-0.414271241	-17.801
-0.007192359	-19.741
0.475800874	-18.247
0.907413452	-17.255
1.121846977	-16.777
0.962093293	-16.723
0.341460949	-17.434
-0.699161965	-19.096
-1.960991905	-19.411
-3.103433688	-18.607
-3.714516535	-19.142
-3.425675533	-19.698
-2.04135138	-18.472
0.359751354	-18.814
3.394892315	-17.662
6.444219014	-13.951
8.806710311	-7.145
9.901004541	1.644
9.44323681	-0.854
7.536422957	-7.974
4.636743803	-17.679
1.409142451	-19.046
-1.473328444	-18.273
-3.513981094	-19.332
-4.500896179	-18.062
-4.513946938	-18.155
-3.844396637	-18.295
-2.868454003	-17.738
-1.923459835	-18.804
-1.224155166	-17.326
-0.835163422	-16.086
-0.69439852	-15.967
-0.667837058	-16.192
-0.611637709	-15.861
-0.421600526	-14.814
-0.058836128	-14.668
0.449734508	-14.962
1.029890965	-13.549
1.58770707	-12.771
2.036333708	-13.058
2.314876485	-12.495
2.396328576	-12.453
2.285378056	-11.846
2.009551254	-12.713
1.60814853	-12.964
1.1228759	-13.324
0.592426632	-14.618
0.051180149	-13.998
-0.4695689	-12.979
-0.940171618	-15.881
-1.332751214	-16.566
-1.623296144	-15.831
-1.794877586	-16.304
-1.840805511	-15.506
-1.767035281	-14.656
-1.593666149	-15.715
-1.355180976	-15.599
-1.098269043	-15.556
-0.875648307	-15.309
-0.735318304	-14.935
-0.707209772	-14.053
-0.791963481	-13.162
-0.957567736	-14.293
-1.14744374	-14.57
-1.298700602	-15.962
-1.363969387	-15.849
-1.327451037	-14.197
-1.20749711	-14.619
-1.043833978	-14.609
-0.874918989	-14.467
-0.716433662	-13.466
-0.55276581	-11.862
-0.34851385	-13.682
-0.077904167	-13.722
0.239976149	-12.39
0.518515598	-13.22
0.610657753	-14.085
0.353068078	-12.797
-0.361105588	-12.31
-1.505323281	-12.872
-2.871936981	-14.847
-4.083379886	-16.608
-4.674716802	-15.917
-4.233585709	-13.992
-2.556997572	-15.192
0.231371243	-16.32
3.655959177	-12.79
6.982470753	-8.546
9.413326104	0.011
10.32633561	6.175
9.473302961	3.665
7.063788139	-3.394
3.700290075	-15.351
0.188073921	-16.884
-2.70967893	-15.81
-4.483787443	-14.473
-4.989625613	-13.653
-4.43158842	-14.077
-3.243952738	-13.555
-1.922325889	-13.348
-0.867093576	-12.046
-0.285386365	-11.55
-0.170888998	-11.666
-0.352916131	-12.047
-0.586532343	-10.572
-0.648358422	-11.904
-0.407646795	-11.812
0.144595693	-9.978
0.909640152	-8.814
1.725896477	-7.939
2.42501356	-7.437
2.879914404	-8.373
3.031869993	-7.573
2.892918765	-6.756
2.528255883	-8.299
2.028132589	-7.911
1.479656557	-7.434
0.946541072	-8.986
0.460857112	-10.567
0.02662586	-9.607
-0.368358047	-9.752
-0.738097605	-9.837
-1.087095773	-9.569
-1.406036539	-12.555
-1.675042454	-11.101
-1.871878172	-11.119
-1.980746505	-11.666
-1.997811084	-11.54
-1.931791498	-10.311
-1.800584644	-11.361
-1.626498797	-10.266
-1.432646489	-10.777
-1.241584235	-10.508
-1.075396401	-10.462
-0.95523175	-9.772
-0.898483884	-9.887
-0.913242079	-10.068
-0.991548599	-8.341
-1.1044132	-11.008
-1.201802768	-10.807
-1.219846231	-9.312
-1.095590575	-8.982
-0.787241543	-9.171
-0.295347911	-10.101
0.321571208	-8.161
0.944059331	-7.608
1.406971773	-5.497
1.534547735	-8.236
1.191072844	-8.015
0.336333315	-8.666
-0.93050491	-9.822
-2.357214823	-9.467
-3.570053051	-10.286
-4.154587278	-10.286
-3.77276359	-12.686
-2.28501888	-10.772
0.165004704	-10.792
3.142316857	-7.068
6.007419283	-5.551
8.083065652	-0.589
8.85201545	8.899
8.118072564	6.049
6.070204872	-2.075
3.223326774	-10.481
0.256180319	-12.097
-2.194147646	-11.123
-3.707771871	-11.652
-4.170847008	-9.872
-3.758175087	-9.353
-2.83019134	-9.79
-1.791498837	-9.736
-0.963180523	-8.942
-0.506855954	-8.929
-0.413949663	-8.08
-0.549681838	-9.666
-0.72597971	-8.289
-0.774089515	-8.996
-0.594605008	-7.602
-0.175179395	-6.521
0.421283087	-6.394
1.086950021	-7.364
1.70457902	-6.839
2.177365085	-5.301
2.446929504	-4.117
2.497890084	-4.989
2.350950854	-5.259
2.048724957	-4.848
1.639666971	-5.754
1.165385369	-7.394
0.654996717	-6.823
0.127269053	-6.323
-0.401976142	-7.05
-0.911943923	-8.044
-1.373162564	-8.321
-1.750441941	-10.226
-2.011533993	-9.265
-2.13773403	-8.075
-2.131709936	-9.172
-2.018946449	-10.119
-1.841677013	-8.747
-1.647051298	-8.801
-1.473589717	-7.548
-1.340886601	-7.641
-1.246545452	-9.086
-1.171639648	-8.368
-1.092579075	-7.809
-0.99453306	-7.321
-0.880627607	-7.386
-0.772371183	-8.182
-0.699841444	-8.084
-0.684303291	-7.384
-0.719954934	-7.987
-0.763832948	-5.941
-0.741899457	-6.309
-0.574157443	-6.865
-0.213296637	-7.506
0.317026939	-7.836
0.902442087	-5.162
1.351730298	-5.721
1.448669123	-5.76
1.031053847	-4.952
0.072175794	-5.343
-1.266736977	-7.72
-2.640336927	-8.597
-3.590871224	-8.901
-3.676396756	-9.076
-2.620802392	-8.381
-0.436036719	-8.545
2.532142202	-7.496
5.663689092	-4.499
8.222817063	1.121
9.57060631	9.423
9.360498385	11.466
7.645686042	2.694
4.857532774	-5.853
1.663218694	-10.383
-1.242786065	-9.991
-3.33625698	-10.099
-4.383131437	-8.03
-4.451603383	-7.54
-3.829869705	-8.329
-2.89449313	-8.95
-1.982834057	-8.596
-1.30965525	-8.241
-0.942924705	-8.477
-0.829647963	-7.716
-0.848418448	-6.994
-0.864018828	-6.521
-0.767599146	-5.376
-0.497336452	-6.167
-0.043110813	-5.487
0.558281316	-6.17
1.232705803	-6.563
1.881877143	-3.531
2.400824096	-3.346
2.699144949	-3.756
2.722391909	-3.188
2.46718901	-3.116
1.983663869	-2.38
1.362274986	-4.813
0.708016522	-6.941
0.110629048	-6.001
-0.378123611	-6.68
-0.751502728	-6.944
-1.037154264	-6.936
-1.274526675	-6.316
-1.491270845	-6.448
-1.689547461	-6.816
-1.847932029	-9.516
-1.93672573	-8.559
-1.937928922	-8.866
-1.859186775	-6.541
-1.734478011	-7.49
-1.611188154	-8.421
-1.529941667	-7.096
-1.50698954	-5.624
-1.527662373	-8.371
-1.554153529	-8.232
-1.544107215	-6.981
-1.471213818	-7.675
-1.337705061	-8.275
-1.172063686	-7.692
-1.012126731	-6.413
-0.881168783	-6.117
-0.769098341	-6.246
-0.630110802	-6.077
-0.401720294	-6.836
-0.040334976	-7.039
0.440489148	-5.324
0.947194868	-5.23
1.313913931	-5.516
1.346125876	-4.798
0.892114667	-4.967
-0.078958717	-6.725
-1.421248173	-8.051
-2.806249364	-8.036
-3.782412502	-8.101
-3.895400102	-7.565
-2.839773996	-8.921
-0.593532198	-9.879
2.518004169	-8.429
5.866474926	-5.152
8.674922703	1.813
10.24078459	11.639
10.15286328	10.934
8.422752695	4.25
5.480147717	-6.619
2.03350311	-11.747
-1.150654578	-8.939
-3.468313617	-9.436
-4.623698478	-10.512
-4.660766814	-9.944
-3.886988971	-10.288
-2.732350546	-7.769
-1.601061067	-7.844
-0.764675774	-9.496
-0.32104755	-9.734
-0.215853209	-8.211
-0.303330961	-6.751
-0.41605294	-8.636
-0.419340439	-8.592
-0.238877122	-6.797
0.136726806	-5.946
0.668555094	-6.871
1.284281215	-8.15
1.892857129	-6.847
2.396509677	-6.357
2.703181019	-5.508
2.741948922	-4.928
2.480153459	-6.33
1.936839454	-6.367
1.185596073	-6.406
0.342251968	-8.831
-0.461639696	-10.159
-1.112441326	-10.213
-1.544165528	-10.552
-1.75355902	-11.65
-1.794562658	-11.794
-1.753770126	-11.504
-1.715964314	-10.302
-1.732971418	-9.784
-1.807881341	-11.714
-1.900284624	-12.834
-1.949222907	-13.714
-1.903167901	-12.998
-1.744015379	-10.562
-1.495685281	-12.201
-1.215305108	-12.576
-0.972325679	-10.606
-0.82498379	-11.423
-0.803007102	-12.074
-0.901330101	-12.936
-1.084306405	-12.953
-1.296108995	-12.789
-1.472290111	-13.362
-1.549631115	-13.68
-1.474683627	-12.131
-1.213477332	-13.253
-0.764176116	-13.367
-0.171051309	-12.272
0.46625096	-12.074
0.996877745	-12.737
1.243791264	-11.667
1.050918492	-12.912
0.34406118	-12.474
-0.81258764	-14.534
-2.188000373	-15.387
-3.405003935	-15.483
-4.018798746	-16.361
-3.64196925	-16.372
-2.083006691	-16.322
0.549052828	-17.034
3.819938556	-14.493
7.050419021	-11.234
9.490072253	-4.632
10.53425356	4.446
9.910326392	0.231
7.764320019	-6.938
4.614138013	-17.018
1.186331103	-19.346
-1.802559082	-18.381
-3.841644905	-19.434
-4.735120722	-19.087
-4.600564614	-18.842
-3.773828492	-18.939
-2.66753976	-18.467
-1.637310852	-19.175
-0.896307335	-18.816
-0.494087232	-17.94
-0.350928814	-18.036
-0.322840804	-17.779
-0.268546934	-17.555
-0.096365757	-18.074
0.218683985	-17.721
0.64457693	-16.228
1.117319306	-15.994
1.567670414	-17.271
1.939422733	-17.267
2.195743795	-16.826
2.316325739	-16.561
2.291285424	-16.354
2.117196023	-16.563
1.797531339	-17.443
1.346307856	-17.893
0.791630191	-18.507
0.175914633	-19.197
-0.448623768	-19.661
-1.028213856	-22.327
-1.516734634	-21.419
-1.882856915	-22.178
-2.113309522	-20.851
-2.21228671	-22.487
-2.198295455	-22.921
-2.099863598	-23.112
-1.95083886	-23.409
-1.785415964	-21.828
-1.633145559	-21.801
-1.514785578	-22.677
-1.440177641	-22.618
-1.408797497	-22.554
-1.412399259	-21.779
-1.438027289	-23.742
-1.469454026	-23.548
-1.486186194	-22.019
-1.461183106	-22.809
-1.36030075	-23.338
-1.146966209	-21.924
-0.793948565	-22.087
-0.300608751	-22.631
0.289978296	-22.056
0.882263403	-20.191
1.335746929	-20.883
1.49288098	-20.289
1.224812155	-21.116
0.484785306	-21.939
-0.647203095	-22.691
-1.947200009	-23.264
-3.07252474	-24.807
-3.633962721	-24.052
-3.303765193	-23.404
-1.93166176	-24.467
0.36995414	-24.266
3.209266557	-21.467
5.987234246	-18.951
8.049223078	-15.127
8.873749419	-6.134
8.235006328	-7.518
6.278737095	-14.29
3.480068218	-23.211
0.496347246	-26.796
-2.031716029	-25.559
-3.659478357	-23.915
-4.238928068	-23.828
-3.914973539	-25.849
-3.031964877	-23.486
-1.994214108	-22.413
-1.133415822	-22.022
-0.624868801	-22.417
-0.470635154	-23.382
-0.541875178	-22.899
-0.654126927	-22.342
-0.64351925	-21.663
-0.418500129	-21.112
0.024238589	-20.234
0.616077572	-20.416
1.251394231	-18.543
1.824722506	-20.001
2.257528792	-18.873
2.509149503	-18.326
2.573457913	-17.817
2.467208864	-17.901
2.216986349	-18.157
1.849952413	-18.822
1.390551234	-18.672
0.862317133	-19.212
0.291940637	-19.072
-0.287759416	-20.613
-0.838375652	-21.217
-1.320542498	-20.572
-1.701300675	-20.824
-1.961549168	-22.602
-2.100697325	-21.345
-2.136451899	-20.473
-2.099265344	-22.027
-2.02284726	-21.516
-1.933738499	-21.261
-1.84372565	-20.02
-1.748382262	-19.644
-1.633055461	-20.856
-1.484518174	-19.591
-1.303403073	-21.035
-1.111047877	-19.846
-0.945772931	-18.999
-0.847860656	-18.132
-0.83804749	-19.608
-0.898711206	-18.986
-0.967937794	-18.126
-0.953301666	-18.412
-0.765111978	-17.476
-0.360170986	-17.956
0.220092603	-18.354
0.835538577	-17.065
1.270777013	-16.691
1.297671956	-16.314
0.762580994	-15.325
-0.329808676	-16.546
-1.769833141	-18.507
-3.16056822	-18.382
-4.008341773	-20.177
-3.868529325	-19.065
-2.5046109	-19.19
-0.005214205	-19.284
3.190550763	-16.212
6.382985135	-13.691
8.800162916	-6.089
9.82793044	1.43
9.202364461	-0.266
7.093540323	-7.736
4.047872908	-17.704
0.810149229	-20.347
-1.907983108	-18.369
-3.629149269	-18.249
-4.214672729	-18.563
-3.848090527	-17.333
-2.920125868	-15.742
-1.869210111	-15.354
-1.038406399	-17.554
-0.593009405	-16.21
-0.513635622	-16.224
-0.650674197	-16.58
-0.808039802	-14.883
-0.821418321	-15.275
-0.60628252	-15.795
-0.167405872	-13.398
0.422898574	-13.074
1.061448549	-12.646
1.648625241	-12.939
2.109464109	-12.773
2.399205277	-11.679
2.498419712	-12.249
2.405599187	-11.94
2.133020471	-10.832
1.706897027	-11.223
1.168520401	-11.818
0.571780227	-13.973
-0.025326682	-13.491
-0.573407807	-13.308
-1.043330646	-16.611
-1.430932312	-14.417
-1.751681617	-14.697
-2.027024206	-14.656
-2.268485873	-14.172
-2.467110268	-16.226
-2.593590585	-15.772
-2.609623855	-16.356
-2.485977328	-14.842
-2.219822519	-15.206
-1.844123739	-13.755
-1.424824822	-14.512
-1.045899394	-14.931
-0.786498825	-12.49
-0.697207776	-12.036
-0.782966491	-12.974
-0.998287815	-13.772
-1.256595307	-14.301
-1.45128989	-14.266
-1.483143554	-12.991
-1.287651454	-12.767
-0.856647353	-12.619
-0.249696728	-12.162
0.408242505	-12.227
0.945442083	-10.153
1.178941614	-10.34
0.963882895	-12.171
0.247986346	-12.115
-0.883390735	-12.739
-2.189789829	-13.435
-3.302069307	-12.275
-3.799306076	-13.234
-3.325845715	-14.286
-1.718729938	-14.207
0.89789056	-12.707
4.093886844	-10.145
7.212754999	-7.233
9.538293407	-1.412
10.50046468	6.601
9.850523808	5.357
7.740597355	-1.876
4.676148092	-13.118
1.358059777	-14.641
-1.527159807	-12.567
-3.494105895	-13.814
-4.361949889	-13.857
-4.251233967	-12.396
-3.491274436	-12.707
-2.483253499	-13.42
-1.570629912	-12.599
-0.955704479	-12.172
-0.677903081	-11.528
-0.646162088	-10.905
-0.702579799	-12.031
-0.69033045	-11.416
-0.504335961	-9.547
-0.114135796	-10.689
0.440209633	-9.277
1.070457421	-7.893
1.669401574	-9.926
2.137562072	-8.48
2.402176757	-6.968
2.427330946	-8.613
2.216283637	-7.362
1.807451559	-7.911
1.265124279	-8.322
0.665988057	-8.992
0.083440869	-9.901
-0.426985515	-11.219
-0.837122689	-11.099
-1.147565268	-10.846
-1.38054266	-10.011
-1.566969298	-10.959
-1.732515337	-12.526
-1.887638926	-11.761
-2.024664661	-10.304
-2.122180408	-12.359
-2.154483844	-12.487
-2.102415708	-11.809
-1.961965968	-10.952
-1.748250127	-10.327
-1.494124076	-11.907
-1.244099857	-10.556
-1.045006176	-10.622
-0.93517672	-10.109
-0.934185044	-10.686
-1.035366023	-10.503
-1.20331228	-9.201
-1.377865776	-10.348
-1.484781538	-12.239
-1.451624872	-11.544
-1.226213809	-9.95
-0.794366335	-8.149
-0.193536788	-8.853
0.481461201	-9.361
1.084997038	-9.007
1.443354218	-8.071
1.394656822	-6.513
0.841128274	-8.439
-0.198539434	-10.341
-1.55474176	-11.124
-2.909370959	-10.572
-3.847586307	-10.186
-3.957456626	-12.072
-2.957256047	-10.739
-0.812991282	-11.237
2.198615627	-10.739
5.517085016	-5.674
8.423353535	-3.665
10.23427185	5.552
10.50535449	10.356
9.169688844	3.993
6.559615766	-4.436
3.300885216	-11.671
0.118137609	-11.646
-2.376618383	-12.358
-3.83879403	-10.653
-4.243247897	-10.906
-3.8302643	-9.917
-2.980307153	-10.721
-2.071303767	-11.506
-1.368095151	-10.916
-0.972731331	-9.022
-0.837844181	-10.667
-0.824098926	-10.121
-0.772874683	-9.239
-0.567450068	-8.505
-0.166346953	-7.982
0.394534418	-7.761
1.023845508	-7.247
1.608371593	-7.97
2.045893156	-6.992
2.26853846	-5.136
2.252754159	-5.06
2.016589337	-7.929
1.608236942	-7.465
1.091164727	-7.423
0.530538394	-7.639
-0.016500763	-8.004
-0.506570823	-8.54
-0.913043285	-9.498
-1.227307898	-10.071
-1.458085406	-10.271
-1.627658343	-10.662
-1.764361892	-10.794
-1.892507196	-8.818
-2.022955452	-10.321
-2.148305076	-10.679
-2.245271036	-11.64
-2.283834948	-10.509
-2.239694805	-10.835
-2.105069009	-11.649
-1.893708966	-9.827
-1.638497677	-10.136
-1.382881917	-9.251
-1.169221243	-9.304
-1.027328055	-10.142
-0.965498839	-11.106
-0.96536856	-9.882
-0.981853594	-8.782
-0.95003972	-9.084
-0.800754797	-8.547
-0.484332911	-9.416
0.002329854	-8.752
0.595043071	-8.744
1.159565306	-8.83
1.5154438	-7.161
1.486741667	-6.532
0.968741509	-7.468
-0.010120566	-10.479
-1.2559339	-9.889
-2.426963904	-10.022
-3.108278795	-8.821
-2.93083972	-11.242
-1.702579013	-12.529
0.493530118	-10.944
3.276936966	-8.443
6.044337913	-5.972
8.129353445	-0.877
8.99918825	7.943
8.420150912	4.828
6.530487313	-2.894
3.792411998	-9.974
0.841968177	-14.061
-1.705707911	-12.045
-3.424603083	-11.608
-4.164959147	-11.666
-4.041434391	-12.24
-3.343108108	-10.159
-2.410496388	-12.002
-1.527386163	-10.972
-0.859371685	-12.06
-0.446667272	-11.276
-0.237516637	-9.971
-0.13799272	-9.732
-0.055690045	-9.298
0.075162558	-8.801
0.287733258	-8.662
0.588154467	-9.366
0.963158108	-9.267
1.383885541	-7.561
1.8058008	-9.34
2.169094081	-8.714
2.404728288	-7.381
2.448214378	-6.484
2.258214137	-7.581
1.833052962	-8.336
1.217507691	-8.567
0.495378191	-9.552
-0.231046891	-10.568
-0.868023463	-11.535
-1.354365914	-12.494
-1.673917679	-11.791
-1.852471181	-11.968
-1.941226004	-11.134
-1.993906263	-12.685
-2.046531357	-12.726
-2.106993089	-12.519
-2.157163756	-12.643
-2.165316182	-13.092
-2.103120005	-12.794
-1.960435663	-12.006
-1.752523354	-13.098
-1.517274935	-11.646
-1.303487026	-11.352
-1.153980052	-12.72
-1.08891085	-12.064
-1.094765876	-11.606
-1.123370497	-11.789
-1.102972659	-11.054
-0.960264332	-12.171
-0.64857265	-12.204
-0.174313254	-11.044
0.387672478	-9.759
0.898157266	-9.168
1.181236624	-10.917
1.073615873	-11.049
0.485656031	-10.87
-0.542891403	-11.134
-1.813584736	-11.771
-2.985329816	-13.582
-3.644227194	-13.332
-3.41809627	-13.139
-2.10667287	-12.776
0.215784076	-12.847
3.169300405	-12.063
6.13465602	-9.011
8.410810632	-3.055
9.41935924	6.174
8.886908126	4.232
6.93718998	-3.222
4.055142478	-11.936
0.933776727	-15.602
-1.740014299	-14.461
-3.483021741	-14.029
-4.129846723	-13.828
-3.833046431	-14.145
-2.962903452	-12.82
-1.953990085	-11.384
-1.157467426	-12.961
-0.747133619	-12.809
-0.701277075	-11.693
-0.853072274	-12.996
-0.980344493	-13.739
-0.897331291	-12.444
-0.517078612	-10.979
0.131177766	-10.399
0.927038867	-9.371
1.709824039	-10.517
2.333195107	-9.008
2.704540654	-7.571
2.799164785	-9.112
2.650040636	-9.061
2.322339178	-9.291
1.885553761	-10.29
1.394190595	-9.866
0.882096048	-10.633
0.368443	-9.383
-0.131588358	-11.171
-0.599239894	-12.766
-1.012251907	-13.042
-1.351845137	-12.659
-1.611545769	-13.515
-1.801640657	-13.485
-1.94546125	-13.331
-2.068240863	-13.773
-2.183593271	-13.326
-2.284535168	-12.679
-2.344379511	-13.632
-2.328355717	-15.629
-2.211519814	-14.331
-1.994997871	-13.09
-1.712663477	-13.201
-1.424024906	-13.167
-1.194723054	-12.876
-1.071238355	-12.889
-1.059227966	-12.811
-1.114457586	-12.686
-1.151707443	-12.086
-1.071312082	-13.561
-0.796743506	-12.904
-0.311777516	-12.402
0.315992017	-10.774
0.936275301	-11.253
1.346762161	-11.414
1.349683246	-10.664
0.82155837	-10.944
-0.223562305	-11.267
-1.599550679	-15.155
-2.960684691	-15.456
-3.86882769	-13.671
-3.90689001	-13.475
-2.812287191	-14.345
-0.590145308	-15.159
2.437236953	-12.053
5.675342547	-11.788
8.398571302	-6.397
9.95241509	3.677
9.951724449	6.48
8.403204038	-0.835
5.703666356	-10.781
2.512007809	-16.156
-0.45780969	-15.794
-2.646128302	-15.292
-3.786234218	-14.292
-3.932109107	-14.441
-3.380507942	-15.194
-2.530069354	-13.385
-1.735920322	-13.299
-1.2096962	-14.557
-0.989600975	-16.577
-0.975695412	-13.492
-1.003789394	-13.744
-0.923641639	-13.677
-0.65341896	-12.834
-0.197146692	-13.024
0.372086527	-11.721
0.949115383	-10.496
1.436152434	-12.117
1.770440553	-11.917
1.933457047	-11.164
1.943038855	-11.229
1.835281415	-9.628
1.644909121	-11.193
1.39155865	-12.311
1.076285249	-12.234
0.688692644	-12.435
0.221246141	-11.968
-0.315525584	-13.374
-0.884045129	-13.863
-1.422086621	-12.853
-1.857356815	-15.95
-2.129772999	-15.98
-2.213016434	-14.73
-2.126285238	-15.502
-1.930423257	-15.189
-1.708646016	-14.901
-1.538483852	-14.125
-1.465585895	-13.178
-1.489801285	-14.766
-1.569291692	-15.184
-1.641058353	-14.164
-1.649233232	-15.098
-1.568885383	-15.707
-1.414698065	-14.525
-1.230284219	-13.74
-1.062632736	-14.292
-0.933540139	-13.843
-0.822481872	-12.01
-0.671561381	-13.497
-0.413929366	-13.742
-0.015897929	-14.124
0.485317089	-13.596
0.967635642	-11.827
1.246350215	-11.122
1.131765266	-11.899
0.506817373	-11.942
-0.60134048	-14.697
-1.98430177	-14.261
-3.271285292	-15.504
-4.00969981	-15.71
-3.792741771	-15.899
-2.399811239	-14.5
0.096255287	-14.51
3.298791507	-13.191
6.557961374	-10.781
9.133478904	-4.226
10.40412656	4.748
10.05485748	4.043
8.173883481	-2.512
5.222433675	-12.999
1.887745487	-17.551
-1.125803401	-15.171
-3.291875609	-15.451
-4.37936652	-14.564
-4.462836067	-15.964
-3.839333159	-16.031
-2.895146536	-14.692
-1.975069137	-14.36
-1.295277029	-15.442
-0.917422745	-14.429
-0.777129889	-14.119
-0.743687811	-13.942
-0.683366899	-13.562
-0.50507712	-12.096
-0.179108119	-13.071
0.268485756	-11.541
0.77600059	-11.41
1.269503223	-13.076
1.681579516	-11.364
1.962312024	-10.869
2.08326052	-9.723
2.036870275	-11.092
1.833526549	-10.891
1.497539552	-11.247
1.062616307	-11.994
0.567157247	-11.408
0.049822001	-13.246
-0.454088625	-14.061
-0.915020929	-12.776
-1.310299328	-14.211
-1.624396419	-14.257
-1.848890097	-14.69
-1.982393333	-14.861
-2.030264029	-14.887
-2.003630993	-15.323
-1.917515247	-14.588
-1.788488533	-14.511
-1.632890591	-13.759
-1.466528924	-14.642
-1.305790575	-13.411
-1.168669282	-14.897
-1.073366123	-14.736
-1.032809547	-14.191
-1.045798476	-13.089
-1.088457918	-13.194
-1.111511016	-13.399
-1.048036669	-15.184
-0.832762469	-14.197
-0.428918889	-12.619
0.145656098	-12.414
0.80340548	-11.632
1.391906167	-12.139
1.723182016	-12.815
1.624899314	-10.887
1.002576661	-11.372
-0.105179923	-12.688
-1.499338845	-14.965
-2.838184319	-15.715
-3.706301153	-15.445
-3.724672564	-15.119
-2.674660274	-14.808
-0.596814962	-15.212
2.174931452	-14.193
5.068359701	-12.1
7.413615865	-6.822
8.632280986	1.527
8.41320772	2.042
6.811191659	-3.73
4.22935827	-12.323
1.289710018	-18.254
-1.360361479	-15.856
-3.234586028	-16.76
-4.1233547	-16.728
-4.106652644	-14.792
-3.474186536	-14.01
-2.594615909	-14.89
-1.786912413	-15.444
-1.236181153	-16.477
-0.972147407	-15.262
-0.903015158	-13.961
-0.880384682	-14.13
-0.766453326	-13.073
-0.481089767	-14.523
-0.018494269	-13.663
0.564442847	-12.242
1.177270859	-11.234
1.728627058	-11.444
2.150645645	-11.901
2.409129841	-11.899
2.500056207	-10.84
2.437771153	-11.169
2.241890051	-10.264
1.92862542	-11.599
1.509290832	-13.842
0.995420003	-11.365
0.407266428	-13.729
-0.219002873	-13.994
-0.829913712	-13.384
-1.361583407	-15.289
-1.754023381	-16.204
-1.968389705	-15.915
-2.000571746	-15.797
-1.88500871	-16.637
-1.685921819	-15.453
-1.478070992	-14.982
-1.32363771	-15.716
-1.253859244	-14.613
-1.26249207	-14.306
-1.313483157	-17.141
-1.359272007	-15.664
-1.361564928	-15.763
-1.305385787	-16.441
-1.200331919	-14.973
-1.068949532	-15.299
-0.928364702	-15.796
-0.775011525	-15.322
-0.581753835	-14.814
-0.311804729	-14.051
0.053829092	-14.861
0.486311387	-14.902
0.891641984	-15.359
1.119731039	-14.258
1.005339415	-13.949
0.433485097	-14.108
-0.591014065	-16.342
-1.897731662	-17.669
-3.154331078	-16.719
-3.932552249	-17.504
-3.827998676	-18.679
-2.602057111	-18.597
-0.298027886	-18.303
2.717229282	-16.327
5.815768555	-13.897
8.269315552	-8.51
9.462669927	-0.308
9.087112509	-0.149
7.241548363	-6.346
4.400463632	-16.414
1.258699278	-22.152
-1.488720002	-20.391
-3.349918033	-19.574
-4.152036578	-19.862
-4.038041996	-19.393
-3.360725165	-18.904
-2.526061544	-18.416
-1.849160224	-17.322
-1.471442409	-21.524
-1.357027052	-21.017
-1.353967831	-20.029
-1.284715622	-19.384
-1.026216771	-18.17
-0.551744991	-19.169
0.073500487	-18.018
0.73188249	-17.071
1.305418652	-16.929
1.717287813	-16.119
1.948015396	-17.381
2.02461975	-19.312
1.992758776	-17.709
1.887681412	-17.856
1.717825907	-17.101
1.467061744	-17.789
1.112102322	-19.184
0.644913538	-19.882
0.088523224	-19.941
-0.501588713	-20.149
-1.051492038	-22.572
-1.492271491	-23.233
-1.782880343	-23.452
-1.922582256	-23.95
-1.947741093	-22.438
-1.914541081	-23.002
-1.875228868	-24.26
-1.857999754	-24.351
-1.858728898	-23.784
-1.847423369	-23.725
-1.785945207	-25.799
-1.648871866	-25.414
-1.438198752	-25.028
-1.185387678	-24.26
-0.939792459	-24.08
-0.748297095	-23.898
-0.634559456	-25.34
-0.58623697	-25.378
-0.555412243	-25.667
-0.472816255	-25.201
-0.27216616	-24.903
0.081967488	-25.037
0.570692162	-25.626
1.109586455	-23.633
1.556093421	-25.055
1.738538185	-24.71
1.504473714	-25.957
0.779207406	-25.885
-0.381435017	-27.914
-1.764124183	-28.949
-3.015138184	-29.424
-3.710356138	-29.275
-3.47008182	-30.099
-2.090730127	-29.063
0.349919837	-31.392
3.45918114	-30.321
6.595904289	-26.37
9.031255135	-19.677
10.15890261	-10.366
9.682900763	-13.674
7.712642543	-21.112
4.726656853	-30.414
1.418026254	-35.458
-1.519530367	-33.878
-3.58580811	-33.586
-4.583415136	-33.029
-4.616117155	-34.152
-3.994381642	-33.919
-3.096656469	-33.834
-2.241583186	-34.568
-1.611221606	-35.481
-1.238727181	-33.842
-1.048296237	-33.974
-0.919863128	-34.128
-0.749246979	-33.058
-0.483668211	-33.465
-0.126831993	-33.072
0.279286648	-32.543
0.681699683	-32.386
1.038557483	-33.164
1.327842871	-33.096
1.542310686	-33.146
1.67696896	-32.844
1.718019932	-32.126
1.640350737	-33.358
1.415779078	-33.639
1.028694933	-34.051
0.491814136	-34.129
-0.145998839	-34.882
-0.805110138	-35.174
-1.393614268	-37.802
-1.833040102	-39.327
-2.081655796	-37.568
-2.146083409	-37.061
-2.076352639	-38.812
-1.946123199	-37.704
-1.825662791	-38.072
-1.757838792	-37.539
-1.745941388	-37.929
-1.757377587	-38.951
-1.741150209	-38.978
-1.651946512	-38.129
-1.471459988	-38.491
-1.218878456	-37.959
-0.94655252	-37.859
-0.72209356	-37.862
-0.602795807	-37.73
-0.611033738	-38.404
-0.719498115	-37.587
-0.852733288	-37.292
-0.906869448	-38.576
-0.783690503	-38.654
-0.429767541	-37.865
0.131890337	-37.974
0.789931445	-36.716
1.360506574	-35.829
1.631483562	-35.851
1.42695784	-37.364
0.676173518	-37.249
-0.533850113	-38.461
-1.942686633	-39.846
-3.152380939	-40.531
-3.716689236	-39.044
-3.268098937	-39.221
-1.649360412	-40.724
0.99467274	-39.479
4.205970754	-38.293
7.30319648	-34.636
9.557830645	-27.437
10.40545318	-18.077
9.62003226	-22.611
7.386314857	-31.596
4.241349763	-41.052
0.906260784	-41.297
-1.929173756	-39.934
-3.792436482	-42.032
-4.52565707	-40.489
-4.274157016	-41.112
-3.386862194	-40.514
-2.276035737	-39.496
-1.288635288	-40.218
-0.627075393	-39.995
-0.332591281	-38.661
-0.32073475	-38.657
-0.443980692	-40.142
-0.554065294	-38.826
-0.544528285	-37.602
-0.366713214	-37.944
-0.024159239	-37.466
0.443472999	-38.089
0.976265457	-37.834
1.504200659	-36.884
1.952320028	-36.203
2.24543272	-37.057
2.316858538	-34.903
2.122353703	-35.872
1.655903442	-36.701
0.960907952	-36.957
0.130086802	-38.368
-0.709525338	-37.636
-1.424848414	-39.623
-1.911074942	-40.185
-2.12116177	-41.226
-2.079696834	-40.706
-1.874760536	-39.352
-1.628980626	-39.891
-1.458896308	-37.961
-1.436648351	-38.464
-1.567623027	-40.724
-1.791988918	-39.834
-2.009353356	-39.744
-2.11745101	-38.594
-2.050873563	-40.888
-1.805903866	-40.499
-1.442380266	-38.697
-1.061595312	-38.055
-0.767898786	-38.355
-0.627907802	-37.649
-0.642633737	-37.051
-0.743690596	-38.087
-0.816420422	-39.486
-0.743220974	-37.828
-0.452935074	-37.538
0.040730665	-35.791
0.626429518	-36.318
1.115927744	-37.115
1.296744896	-36.282
1.004795483	-35.118
0.1965822	-36.15
-1.003594436	-37.545
-2.302976195	-37.946
-3.296733526	-38.419
-3.574423448	-39.854
-2.850394099	-38.526
-1.077934078	-37.337
1.495367441	-37.246
4.360318175	-35.111
6.868800263	-31.026
8.414967808	-23.894
8.617072277	-19.325
7.435541613	-25.157
5.18254004	-31.926
2.418158407	-38.835
-0.228030425	-38.748
-2.243741042	-36.436
-3.363381913	-37.913
-3.601573629	-37.665
-3.192129852	-36.269
-2.468392924	-33.537
-1.736624351	-36.759
-1.187648075	-36.99
-0.86931786	-36.229
-0.715407724	-36.062
-0.606712635	-34.346
-0.433917873	-34.513
-0.138728759	-34.246
0.275852584	-31.856
0.760865107	-30.576
1.248630406	-32.877
1.677656175	-33.948
2.006504282	-30.649
2.21540732	-30.103
2.299936621	-31.204
2.262789523	-30.459
2.10831191	-30.214
1.841474124	-30.471
1.470390667	-31.014
1.01007262	-31.376
0.485041148	-32.186
-0.070734943	-31.488
-0.61697932	-32.735
-1.112712886	-33.057
-1.522988804	-32.529
-1.825049486	-34.329
-2.012232412	-33.758
-2.094443279	-32.311
-2.094882583	-33.006
-2.043718268	-34.707
-1.970270198	-32.681
-1.895826247	-32.232
-1.82930059	-32.649
-1.767373215	-31.719
-1.699382247	-33.153
-1.615320955	-32.197
-1.513562617	-30.731
-1.40433977	-32.202
-1.306166013	-32.237
-1.235254445	-31.761
-1.191713413	-30.837
-1.149356139	-29.935
-1.05654341	-29.789
-0.852369788	-30.919
-0.496055876	-30.681
9.10E-05	-29.082
0.54888562	-28.677
0.992050301	-29.199
1.137089811	-28.776
0.822760658	-28.417
-0.004725749	-29.006
-1.232243212	-29.37
-2.565524221	-29.559
-3.578405101	-32.057
-3.823523922	-31.439
-2.977950399	-30.734
-0.977521795	-31.474
1.911930612	-29.618
5.124128467	-26.204
7.928024697	-23.167
9.634616192	-14.068
9.807656215	-10.091
8.402658046	-16
5.781110026	-25.338
2.593100263	-32.119
-0.42800757	-30.629
-2.683172027	-31.195
-3.861891823	-30.474
-3.987363857	-29.464
-3.351304465	-29.389
-2.376171398	-29.158
-1.461738418	-28.964
-0.868553049	-28.477
-0.668824813	-29.166
-0.767130771	-30.186
-0.970141789	-27.666
-1.073210637	-27.89
-0.933196972	-28.064
-0.507730782	-27.712
0.144463276	-27.202
0.894758308	-26.06
1.591997849	-25.277
2.108778258	-24.896
2.37278364	-23.997
2.37625706	-24.897
2.164661964	-25.593
1.812017836	-25.263
1.393393284	-25.371
0.964047616	-25.854
0.550670164	-25.593
0.155013121	-26.986
-0.234047962	-26.822
-0.626104292	-27.437
-1.01826416	-27.958
-1.391380423	-27.027
-1.714178215	-28.644
-1.953092608	-28.793
-2.08368311	-28.928
-2.099157426	-28.731
-2.012934454	-28.354
-1.854725422	-27.493
-1.662185136	-28.151
-1.471650345	-28.303
-1.311290548	-27.942
-1.198405618	-26.114
-1.140438851	-27.053
-1.137506918	-29.536
-1.183684152	-26.813
-1.265309378	-26.819
