-1.94 0 1 -866
-1.63 0 1 -867
-1.30 0 1 -869
-0.97 0 1 -859
-0.66 0 1 -867
-0.39 0 1 -867
-0.18 0 1 -864
-0.05 0 1 -866
0.02 0 1 -870
0.02 0 1 -866
-0.03 0 1 -866
-0.11 0 1 -874
-0.20 0 1 -866
-0.28 0 1 -868
-0.30 0 1 -870
-0.26 0 1 -866
-0.12 0 1 -868
0.13 0 1 -868
0.49 0 1 -866
0.95 0 1 -872
1.48 0 1 -864
2.07 0 1 -866
2.67 0 1 -865
3.23 0 1 -868
3.70 0 1 -865
4.04 1 0 -866
4.21 1 0 -865
4.19 1 0 -867
3.97 1 0 -871
3.54 1 0 -869
2.93 1 0 -866
2.17 1 0 -868
1.31 1 0 -868
0.41 1 0 -875
-0.49 1 0 -867
-1.31 1 0 -863
-2.01 1 0 -859
-2.56 1 0 -867
-2.91 1 0 -868
-3.07 1 0 -870
-3.02 1 0 -868
-2.79 1 0 -866
-2.40 1 0 -868
-1.89 1 0 -868
-1.29 1 0 -868
-0.65 1 0 -860
-0.02 1 0 -867
0.57 1 0 -866
1.07 1 0 -867
1.46 1 0 -868
1.73 1 0 -882
1.86 1 0 -867
1.85 0 1 -869
1.71 0 1 -868
1.46 0 1 -868
1.12 0 1 -866
0.71 0 1 -868
0.25 0 1 -867
-0.22 0 1 -868
-0.67 0 1 -866
-1.10 0 1 -866
-1.47 0 1 -867
-1.78 0 1 -864
-2.01 0 1 -865
-2.15 0 1 -868
-2.21 0 1 -867
-2.19 0 1 -866
-2.09 0 1 -867
-1.93 0 1 -867
-1.73 0 1 -867
-1.48 0 1 -868
-1.23 0 1 -871
-0.98 0 1 -867
-0.75 0 1 -867
-0.57 0 1 -868
-0.44 0 1 -867
-0.37 0 1 -869
-0.38 0 1 -871
-0.46 0 1 -868
-0.61 0 1 -866
-0.81 0 1 -868
-1.04 0 1 -866
-1.28 0 1 -868
-1.50 0 1 -870
-1.66 0 1 -867
-1.73 0 1 -867
-1.69 0 1 -863
-1.51 0 1 -868
-1.18 0 1 -867
-0.70 0 1 -866
-0.09 0 1 -868
0.64 0 1 -867
1.44 0 1 -860
2.25 0 1 -869
3.04 0 1 -876
3.73 1 0 -868
4.28 1 0 -866
4.64 1 0 -868
4.78 1 0 -870
4.67 1 0 -868
4.32 1 0 -867
3.76 1 0 -868
3.01 1 0 -868
2.13 1 0 -868
1.19 1 0 -867
0.23 1 0 -870
-0.66 1 0 -868
-1.43 1 0 -868
-2.04 1 0 -863
-2.45 1 0 -867
-2.63 1 0 -867
-2.60 1 0 -866
-2.36 1 0 -867
-1.93 1 0 -869
-1.37 1 0 -870
-0.71 1 0 -868
-0.01 1 0 -867
0.69 1 0 -864
1.33 1 0 -868
1.88 1 0 -868
2.29 0 1 -867
2.56 0 1 -867
2.67 0 1 -869
2.62 0 1 -869
2.43 0 1 -866
2.11 0 1 -867
1.69 0 1 -867
1.19 0 1 -868
0.66 0 1 -871
0.12 0 1 -867
-0.40 0 1 -867
-0.88 0 1 -864
-1.29 0 1 -868
-1.63 0 1 -868
-1.89 0 1 -867
-2.07 0 1 -867
-2.16 0 1 -866
-2.19 0 1 -864
-2.15 0 1 -868
-2.06 0 1 -868
-1.94 0 1 -868
-1.79 0 1 -869
-1.62 0 1 -868
-1.44 0 1 -867
-1.27 0 1 -867
-1.10 0 1 -869
-0.94 0 1 -866
-0.81 0 1 -867
-0.70 0 1 -866
-0.62 0 1 -867
-0.57 0 1 -868
-0.57 0 1 -870
-0.61 0 1 -876
-0.69 0 1 -868
-0.81 0 1 -866
-0.97 0 1 -868
-1.15 0 1 -867
-1.34 0 1 -874
-1.51 0 1 -866
-1.64 0 1 -866
-1.72 0 1 -865
-1.71 0 1 -868
-1.59 0 1 -868
-1.36 0 1 -869
-0.99 0 1 -112
-0.50 0 1 -868
0.10 0 1 -868
0.78 0 1 -868
1.51 0 1 -89
2.25 0 1 -90
2.94 0 1 -98
3.53 0 1 -100
3.98 1 0 -114
4.24 1 0 -106
4.29 1 0 -866
4.12 1 0 -89
3.73 1 0 -104
3.14 1 0 -127
2.40 1 0 -107
1.54 1 0 -130
0.64 1 0 -114
-0.26 1 0 -868
-1.08 1 0 -57
-1.78 1 0 -100
-2.32 1 0 -41
-2.66 1 0 62
-2.79 1 0 81
-2.71 1 0 87
-2.43 1 0 -866
-1.98 1 0 100
-1.39 1 0 107
-0.72 1 0 96
-0.00 1 0 -869
0.71 1 0 -865
1.38 1 0 -868
1.96 1 0 -871
2.42 0 1 -867
2.74 0 1 -867
2.92 0 1 -865
2.94 0 1 -869
2.83 0 1 -866
2.58 0 1 -867
2.24 0 1 -868
1.81 0 1 -867
1.34 0 1 -873
0.84 0 1 -867
0.34 0 1 -866
-0.13 0 1 -866
-0.56 0 1 -868
-0.94 0 1 -871
-1.25 0 1 -865
-1.50 0 1 -866
-1.69 0 1 -868
-1.82 0 1 -869
-1.90 0 1 -868
-1.94 0 1 -870
-1.94 0 1 -868
-1.92 0 1 -866
-1.88 0 1 -862
-1.82 0 1 -869
-1.76 0 1 -868
-1.69 0 1 -862
-1.61 0 1 -865
-1.54 0 1 -868
-1.45 0 1 -869
-1.37 0 1 -867
-1.29 0 1 -868
-1.21 0 1 -867
-1.14 0 1 -867
-1.07 0 1 -867
-1.02 0 1 -867
-0.98 0 1 -867
-0.96 0 1 -868
-0.94 0 1 -869
-0.93 0 1 -871
-0.91 0 1 -868
-0.88 0 1 -866
-0.83 0 1 -866
-0.73 0 1 -869
-0.57 0 1 -868
-0.35 0 1 -868
-0.06 0 1 -865
0.31 0 1 -869
0.75 0 1 -868
1.24 0 1 -869
1.76 0 1 -865
2.29 0 1 -869
2.78 0 1 -867
3.21 0 1 -868
3.54 0 1 -870
3.72 1 0 -867
3.75 1 0 -863
3.60 1 0 -868
3.28 1 0 -868
2.79 1 0 -867
2.16 1 0 -865
1.43 1 0 -872
0.64 1 0 -869
-0.16 1 0 -861
-0.91 1 0 -868
-1.57 1 0 -867
-2.09 1 0 -867
-2.45 1 0 -868
-2.63 1 0 -868
-2.62 1 0 -868
-2.43 1 0 -868
-2.08 1 0 -864
-1.59 1 0 -868
-1.02 1 0 -864
-0.39 1 0 107
0.25 1 0 106
0.85 1 0 109
1.38 1 0 110
1.81 1 0 111
2.12 1 0 112
2.30 0 1 113
2.34 0 1 113
2.24 0 1 112
2.04 0 1 114
1.73 0 1 112
1.36 0 1 112
0.94 0 1 110
0.51 0 1 -866
0.09 0 1 -866
-0.30 0 1 110
-0.63 0 1 111
-0.91 0 1 108
-1.12 0 1 108
-1.25 0 1 105
-1.33 0 1 105
-1.35 0 1 105
-1.33 0 1 101
-1.27 0 1 101
-1.20 0 1 98
-1.13 0 1 97
-1.06 0 1 91
-1.00 0 1 88
-0.96 0 1 78
-0.93 0 1 70
-0.92 0 1 67
-0.91 0 1 10
-0.91 0 1 21
-0.91 0 1 3
-0.90 0 1 -31
-0.89 0 1 -868
-0.86 0 1 -867
-0.83 0 1 -868
-0.80 0 1 -145
-0.77 0 1 -84
-0.75 0 1 -200
-0.75 0 1 -125
-0.77 0 1 -123
-0.82 0 1 -124
-0.89 0 1 -89
-0.97 0 1 -166
-1.07 0 1 -164
-1.17 0 1 -177
-1.24 0 1 -140
-1.26 0 1 -143
-1.22 0 1 -163
-1.08 0 1 -151
-0.85 0 1 -237
-0.50 0 1 -95
-0.04 0 1 -864
0.53 0 1 -866
1.17 0 1 -860
1.86 0 1 -867
2.55 0 1 -753
3.21 0 1 -179
3.77 1 0 -128
4.19 1 0 -109
4.43 1 0 -146
4.47 1 0 -211
4.29 1 0 -201
3.88 1 0 -156
3.28 1 0 -171
2.51 1 0 -251
1.61 1 0 -195
0.66 1 0 -261
-0.30 1 0 -224
-1.21 1 0 -258
-2.00 1 0 -176
-2.63 1 0 9
-3.06 1 0 65
-3.29 1 0 83
-3.29 1 0 95
-3.08 1 0 101
-2.69 1 0 105
-2.15 1 0 108
-1.50 1 0 109
-0.78 1 0 109
-0.06 1 0 111
0.64 1 0 25
1.26 1 0 112
1.77 1 0 112
2.15 1 0 114
2.38 1 0 114
2.47 0 1 53
2.41 0 1 114
2.23 0 1 115
1.93 0 1 -4
1.56 0 1 110
1.14 0 1 114
0.69 0 1 113
0.25 0 1 112
-0.17 0 1 112
-0.54 0 1 110
-0.85 0 1 111
-1.09 0 1 111
-1.27 0 1 110
-1.38 0 1 110
-1.44 0 1 109
-1.45 0 1 109
5 Loops Complete both delayed and normal
-1.94 0 1 106
-1.63 0 1 102
-1.30 0 1 101
-0.97 0 1 96
-0.66 0 1 96
-0.39 0 1 92
-0.18 0 1 88
-0.05 0 1 82
0.02 0 1 75
0.02 0 1 63
-0.03 0 1 46
-0.11 0 1 15
-0.20 0 1 -1
-0.28 0 1 -37
-0.30 0 1 -49
-0.26 0 1 -92
-0.12 0 1 -78
0.13 0 1 -102
0.49 0 1 -235
0.95 0 1 -171
1.48 0 1 -229
2.07 0 1 -163
2.67 0 1 -202
3.23 0 1 -252
3.70 0 1 -229
4.04 1 0 -123
4.21 1 0 -105
4.19 1 0 -95
3.97 1 0 -112
3.54 1 0 -98
2.93 1 0 -70
2.17 1 0 -133
1.31 1 0 -147
0.41 1 0 -13
-0.49 1 0 69
-1.31 1 0 87
-2.01 1 0 96
-2.56 1 0 101
-2.91 1 0 105
-3.07 1 0 97
-3.02 1 0 109
-2.79 1 0 100
-2.40 1 0 109
-1.89 1 0 113
-1.29 1 0 112
-0.65 1 0 112
-0.02 1 0 100
0.57 1 0 107
1.07 1 0 114
1.46 1 0 114
1.73 1 0 114
1.86 1 0 113
1.85 0 1 114
1.71 0 1 115
1.46 0 1 114
1.12 0 1 114
0.71 0 1 114
0.25 0 1 113
-0.22 0 1 113
-0.67 0 1 113
-1.10 0 1 111
-1.47 0 1 112
-1.78 0 1 112
-2.01 0 1 112
-2.15 0 1 111
-2.21 0 1 111
-2.19 0 1 111
-2.09 0 1 108
-1.93 0 1 107
-1.73 0 1 106
-1.48 0 1 109
-1.23 0 1 108
-0.98 0 1 106
-0.75 0 1 104
-0.57 0 1 103
-0.44 0 1 97
-0.37 0 1 102
-0.38 0 1 98
-0.46 0 1 96
-0.61 0 1 90
-0.81 0 1 86
-1.04 0 1 74
-1.28 0 1 67
-1.50 0 1 58
-1.66 0 1 37
-1.73 0 1 15
-1.69 0 1 -23
-1.51 0 1 -83
-1.18 0 1 -64
-0.70 0 1 -188
-0.09 0 1 -122
0.64 0 1 -110
1.44 0 1 -164
2.25 0 1 -87
3.04 0 1 -219
3.73 1 0 -173
4.28 1 0 -234
4.64 1 0 -221
4.78 1 0 -125
4.67 1 0 -168
4.32 1 0 -221
3.76 1 0 -102
3.01 1 0 46
2.13 1 0 75
1.19 1 0 79
0.23 1 0 97
-0.66 1 0 99
-1.43 1 0 91
-2.04 1 0 108
-2.45 1 0 106
-2.63 1 0 110
-2.60 1 0 111
-2.36 1 0 108
-1.93 1 0 113
-1.37 1 0 112
-0.71 1 0 112
-0.01 1 0 114
0.69 1 0 114
1.33 1 0 112
1.88 1 0 114
2.29 0 1 114
2.56 0 1 114
2.67 0 1 114
2.62 0 1 114
2.43 0 1 111
2.11 0 1 110
1.69 0 1 109
1.19 0 1 111
0.66 0 1 112
0.12 0 1 112
-0.40 0 1 113
-0.88 0 1 112
-1.29 0 1 111
-1.63 0 1 110
-1.89 0 1 109
-2.07 0 1 110
-2.16 0 1 110
-2.19 0 1 109
-2.15 0 1 109
-2.06 0 1 106
-1.94 0 1 108
-1.79 0 1 105
-1.62 0 1 105
-1.44 0 1 103
-1.27 0 1 101
-1.10 0 1 96
-0.94 0 1 93
-0.81 0 1 79
-0.70 0 1 81
-0.62 0 1 73
-0.57 0 1 65
-0.57 0 1 47
-0.61 0 1 21
-0.69 0 1 -6
-0.81 0 1 -43
-0.97 0 1 -70
-1.15 0 1 -157
-1.34 0 1 -159
-1.51 0 1 -865
-1.64 0 1 -196
-1.72 0 1 -141
-1.71 0 1 -202
-1.59 0 1 -153
-1.36 0 1 -239
-0.99 0 1 -224
-0.50 0 1 -145
0.10 0 1 -259
0.78 0 1 -225
1.51 0 1 -210
2.25 0 1 -194
2.94 0 1 -76
3.53 0 1 -191
3.98 1 0 -215
4.24 1 0 -262
4.29 1 0 -176
4.12 1 0 -244
3.73 1 0 -255
3.14 1 0 -238
2.40 1 0 -144
1.54 1 0 -215
0.64 1 0 -246
-0.26 1 0 -182
-1.08 1 0 -15
-1.78 1 0 62
-2.32 1 0 78
-2.66 1 0 94
-2.79 1 0 98
-2.71 1 0 104
-2.43 1 0 107
-1.98 1 0 104
-1.39 1 0 107
-0.72 1 0 112
-0.00 1 0 109
0.71 1 0 107
1.38 1 0 110
1.96 1 0 109
2.42 0 1 112
2.74 0 1 106
2.92 0 1 114
2.94 0 1 114
2.83 0 1 113
2.58 0 1 114
2.24 0 1 109
1.81 0 1 112
1.34 0 1 112
0.84 0 1 111
0.34 0 1 112
-0.13 0 1 111
-0.56 0 1 110
-0.94 0 1 110
-1.25 0 1 108
-1.50 0 1 106
-1.69 0 1 104
-1.82 0 1 105
-1.90 0 1 104
-1.94 0 1 102
-1.94 0 1 98
-1.92 0 1 98
-1.88 0 1 92
-1.82 0 1 88
-1.76 0 1 78
-1.69 0 1 78
-1.61 0 1 68
-1.54 0 1 36
-1.45 0 1 -7
-1.37 0 1 -24
-1.29 0 1 -56
-1.21 0 1 -138
-1.14 0 1 -136
-1.07 0 1 -180
-1.02 0 1 -189
-0.98 0 1 -864
-0.96 0 1 -866
-0.94 0 1 -867
-0.93 0 1 -196
-0.91 0 1 -219
-0.88 0 1 -170
-0.83 0 1 -864
-0.73 0 1 -865
-0.57 0 1 -865
-0.35 0 1 -864
-0.06 0 1 -865
0.31 0 1 -866
0.75 0 1 -118
1.24 0 1 -866
1.76 0 1 -186
2.29 0 1 -234
2.78 0 1 -154
3.21 0 1 -154
3.54 0 1 -148
3.72 1 0 -128
3.75 1 0 -112
3.60 1 0 -113
3.28 1 0 -101
2.79 1 0 -91
2.16 1 0 -117
1.43 1 0 -157
0.64 1 0 -192
-0.16 1 0 -162
-0.91 1 0 -130
-1.57 1 0 -193
-2.09 1 0 -175
-2.45 1 0 -130
-2.63 1 0 50
-2.62 1 0 73
-2.43 1 0 91
-2.08 1 0 96
-1.59 1 0 102
-1.02 1 0 106
-0.39 1 0 108
0.25 1 0 109
0.85 1 0 111
1.38 1 0 112
1.81 1 0 113
2.12 1 0 114
2.30 0 1 113
2.34 0 1 114
2.24 0 1 114
2.04 0 1 113
1.73 0 1 114
1.36 0 1 112
0.94 0 1 112
0.51 0 1 112
0.09 0 1 112
-0.30 0 1 109
-0.63 0 1 111
-0.91 0 1 109
-1.12 0 1 108
-1.25 0 1 107
-1.33 0 1 105
-1.35 0 1 104
-1.33 0 1 103
-1.27 0 1 99
-1.20 0 1 96
-1.13 0 1 96
-1.06 0 1 90
-1.00 0 1 80
-0.96 0 1 64
-0.93 0 1 72
-0.92 0 1 53
-0.91 0 1 17
-0.91 0 1 -1
-0.91 0 1 -20
-0.90 0 1 -874
-0.89 0 1 -864
-0.86 0 1 -860
-0.83 0 1 -870
-0.80 0 1 -865
-0.77 0 1 -860
-0.75 0 1 -859
-0.75 0 1 -864
-0.77 0 1 -866
-0.82 0 1 -865
-0.89 0 1 -863
-0.97 0 1 -861
-1.07 0 1 -863
-1.17 0 1 -867
-1.24 0 1 -867
-1.26 0 1 -865
-1.22 0 1 -865
-1.08 0 1 -865
-0.85 0 1 -868
-0.50 0 1 -865
-0.04 0 1 -865
0.53 0 1 -874
1.17 0 1 -865
1.86 0 1 -862
2.55 0 1 -866
3.21 0 1 -867
3.77 1 0 -863
4.19 1 0 -862
4.43 1 0 -866
4.47 1 0 -865
4.29 1 0 -864
3.88 1 0 -863
3.28 1 0 -865
2.51 1 0 -866
1.61 1 0 -865
0.66 1 0 -864
-0.30 1 0 -865
-1.21 1 0 -862
-2.00 1 0 -866
-2.63 1 0 -866
-3.06 1 0 62
-3.29 1 0 82
-3.29 1 0 92
-3.08 1 0 101
-2.69 1 0 99
-2.15 1 0 104
-1.50 1 0 108
-0.78 1 0 -643
-0.06 1 0 111
0.64 1 0 112
1.26 1 0 113
1.77 1 0 114
2.15 1 0 113
2.38 1 0 115
2.47 0 1 115
2.41 0 1 114
2.23 0 1 115
1.93 0 1 114
1.56 0 1 114
1.14 0 1 113
0.69 0 1 113
0.25 0 1 114
-0.17 0 1 112
-0.54 0 1 112
-0.85 0 1 -867
-1.09 0 1 110
-1.27 0 1 111
-1.38 0 1 -867
-1.44 0 1 -867
-1.45 0 1 -872
5 Loops Complete both delayed and normal
-1.94 0 1 -867
-1.63 0 1 -865
-1.30 0 1 -864
-0.97 0 1 -866
-0.66 0 1 -866
-0.39 0 1 -867
-0.18 0 1 -867
-0.05 0 1 -866
0.02 0 1 -865
0.02 0 1 -865
-0.03 0 1 -867
-0.11 0 1 -867
-0.20 0 1 -867
-0.28 0 1 -865
-0.30 0 1 -865
-0.26 0 1 -866
-0.12 0 1 -866
0.13 0 1 -870
0.49 0 1 -866
0.95 0 1 -865
1.48 0 1 -866
2.07 0 1 -866
2.67 0 1 -867
3.23 0 1 -865
3.70 0 1 -873
4.04 1 0 -868
4.21 1 0 -867
4.19 1 0 -866
3.97 1 0 -865
3.54 1 0 -868
2.93 1 0 -868
2.17 1 0 -871
1.31 1 0 -866
0.41 1 0 -862
-0.49 1 0 -867
-1.31 1 0 -868
-2.01 1 0 -865
-2.56 1 0 97
-2.91 1 0 101
-3.07 1 0 104
-3.02 1 0 106
-2.79 1 0 108
-2.40 1 0 111
-1.89 1 0 112
-1.29 1 0 112
-0.65 1 0 113
-0.02 1 0 113
0.57 1 0 114
1.07 1 0 114
1.46 1 0 114
1.73 1 0 114
1.86 1 0 113
1.85 0 1 115
1.71 0 1 115
1.46 0 1 114
1.12 0 1 114
0.71 0 1 113
0.25 0 1 115
-0.22 0 1 -866
-0.67 0 1 113
-1.10 0 1 113
-1.47 0 1 113
-1.78 0 1 -866
-2.01 0 1 -864
-2.15 0 1 -870
-2.21 0 1 -867
-2.19 0 1 -868
-2.09 0 1 -867
-1.93 0 1 -866
-1.73 0 1 -861
-1.48 0 1 -867
-1.23 0 1 -867
-0.98 0 1 -865
-0.75 0 1 -867
-0.57 0 1 -865
-0.44 0 1 -864
-0.37 0 1 -866
-0.38 0 1 -867
-0.46 0 1 -868
-0.61 0 1 -866
-0.81 0 1 -865
-1.04 0 1 -864
-1.28 0 1 -866
-1.50 0 1 -868
-1.66 0 1 -867
-1.73 0 1 -866
-1.69 0 1 -865
-1.51 0 1 -868
-1.18 0 1 -866
-0.70 0 1 -867
-0.09 0 1 -865
0.64 0 1 -866
1.44 0 1 -866
2.25 0 1 -868
3.04 0 1 -868
3.73 1 0 -868
4.28 1 0 -865
4.64 1 0 -862
4.78 1 0 -867
4.67 1 0 -871
4.32 1 0 -866
3.76 1 0 -867
3.01 1 0 -867
2.13 1 0 -868
1.19 1 0 71
0.23 1 0 88
-0.66 1 0 94
-1.43 1 0 102
-2.04 1 0 105
-2.45 1 0 107
-2.63 1 0 110
-2.60 1 0 111
-2.36 1 0 111
-1.93 1 0 112
-1.37 1 0 114
-0.71 1 0 113
-0.01 1 0 114
0.69 1 0 115
1.33 1 0 115
1.88 1 0 115
2.29 0 1 115
2.56 0 1 116
2.67 0 1 115
2.62 0 1 115
2.43 0 1 114
2.11 0 1 114
1.69 0 1 113
1.19 0 1 -868
0.66 0 1 114
0.12 0 1 -866
-0.40 0 1 -866
-0.88 0 1 -868
-1.29 0 1 -861
-1.63 0 1 -866
-1.89 0 1 -866
-2.07 0 1 -865
-2.16 0 1 -866
-2.19 0 1 -867
-2.15 0 1 -866
-2.06 0 1 -866
-1.94 0 1 -866
-1.79 0 1 -863
-1.62 0 1 -865
-1.44 0 1 -867
-1.27 0 1 -866
-1.10 0 1 -867
-0.94 0 1 -866
-0.81 0 1 -865
-0.70 0 1 -867
-0.62 0 1 -868
-0.57 0 1 -863
-0.57 0 1 -873
-0.61 0 1 -866
-0.69 0 1 -871
-0.81 0 1 -866
-0.97 0 1 -867
-1.15 0 1 -864
-1.34 0 1 -865
-1.51 0 1 -866
-1.64 0 1 -867
-1.72 0 1 -865
-1.71 0 1 -867
-1.59 0 1 -867
-1.36 0 1 -867
-0.99 0 1 -866
-0.50 0 1 -866
0.10 0 1 -866
0.78 0 1 -866
1.51 0 1 -875
2.25 0 1 -866
2.94 0 1 -872
3.53 0 1 -868
3.98 1 0 -872
4.24 1 0 -867
4.29 1 0 -865
4.12 1 0 -866
3.73 1 0 -868
3.14 1 0 -873
2.40 1 0 -867
1.54 1 0 -869
0.64 1 0 -867
-0.26 1 0 -868
-1.08 1 0 -869
-1.78 1 0 -867
-2.32 1 0 -867
-2.66 1 0 83
-2.79 1 0 90
-2.71 1 0 97
-2.43 1 0 100
-1.98 1 0 104
-1.39 1 0 108
-0.72 1 0 109
-0.00 1 0 110
0.71 1 0 112
1.38 1 0 112
1.96 1 0 112
2.42 0 1 113
2.74 0 1 113
2.92 0 1 114
2.94 0 1 112
2.83 0 1 112
2.58 0 1 112
2.24 0 1 111
1.81 0 1 112
1.34 0 1 111
0.84 0 1 110
0.34 0 1 110
-0.13 0 1 110
-0.56 0 1 110
-0.94 0 1 -867
-1.25 0 1 -867
-1.50 0 1 -864
-1.69 0 1 -866
-1.82 0 1 -874
-1.90 0 1 -861
-1.94 0 1 -867
-1.94 0 1 -868
-1.92 0 1 -867
-1.88 0 1 -866
-1.82 0 1 -863
-1.76 0 1 -866
-1.69 0 1 -866
-1.61 0 1 -866
-1.54 0 1 -867
-1.45 0 1 -866
-1.37 0 1 -862
-1.29 0 1 -866
-1.21 0 1 -867
-1.14 0 1 -871
-1.07 0 1 -867
-1.02 0 1 -866
-0.98 0 1 -867
-0.96 0 1 -864
-0.94 0 1 -868
-0.93 0 1 -870
-0.91 0 1 -868
-0.88 0 1 -866
-0.83 0 1 -856
-0.73 0 1 -871
-0.57 0 1 -867
-0.35 0 1 -870
-0.06 0 1 -867
0.31 0 1 -866
0.75 0 1 -866
1.24 0 1 -868
1.76 0 1 -868
2.29 0 1 -867
2.78 0 1 -868
3.21 0 1 -863
3.54 0 1 -868
3.72 1 0 -872
3.75 1 0 -865
3.60 1 0 -867
3.28 1 0 -868
2.79 1 0 -859
2.16 1 0 -867
1.43 1 0 -865
0.64 1 0 -867
-0.16 1 0 -868
-0.91 1 0 -865
-1.57 1 0 -867
-2.09 1 0 -866
-2.45 1 0 -867
-2.63 1 0 -867
-2.62 1 0 -867
-2.43 1 0 76
-2.08 1 0 94
-1.59 1 0 98
-1.02 1 0 101
-0.39 1 0 106
0.25 1 0 109
0.85 1 0 109
1.38 1 0 112
1.81 1 0 111
2.12 1 0 113
2.30 0 1 112
2.34 0 1 113
2.24 0 1 114
2.04 0 1 113
1.73 0 1 112
1.36 0 1 111
0.94 0 1 110
0.51 0 1 111
0.09 0 1 111
-0.30 0 1 109
-0.63 0 1 110
-0.91 0 1 108
-1.12 0 1 108
-1.25 0 1 107
-1.33 0 1 106
-1.35 0 1 105
-1.33 0 1 101
-1.27 0 1 97
-1.20 0 1 95
-1.13 0 1 93
-1.06 0 1 84
-1.00 0 1 76
-0.96 0 1 67
-0.93 0 1 62
-0.92 0 1 47
-0.91 0 1 8
-0.91 0 1 -867
-0.91 0 1 -864
-0.90 0 1 -867
-0.89 0 1 -867
-0.86 0 1 -860
-0.83 0 1 -866
-0.80 0 1 -865
-0.77 0 1 -866
-0.75 0 1 -866
-0.75 0 1 -863
-0.77 0 1 -120
-0.82 0 1 -72
-0.89 0 1 -131
-0.97 0 1 -112
-1.07 0 1 -129
-1.17 0 1 -168
-1.24 0 1 -871
-1.26 0 1 -118
-1.22 0 1 -184
-1.08 0 1 -192
-0.85 0 1 -867
-0.50 0 1 -875
-0.04 0 1 -867
0.53 0 1 -864
1.17 0 1 -865
1.86 0 1 -861
2.55 0 1 -857
3.21 0 1 -864
3.77 1 0 -865
4.19 1 0 -867
4.43 1 0 -867
4.47 1 0 -867
4.29 1 0 -865
3.88 1 0 -861
3.28 1 0 -862
2.51 1 0 -868
1.61 1 0 -861
0.66 1 0 -865
-0.30 1 0 -866
-1.21 1 0 -864
-2.00 1 0 -866
-2.63 1 0 -40
-3.06 1 0 57
-3.29 1 0 75
-3.29 1 0 89
-3.08 1 0 97
-2.69 1 0 103
-2.15 1 0 106
-1.50 1 0 107
-0.78 1 0 110
-0.06 1 0 111
0.64 1 0 111
1.26 1 0 112
1.77 1 0 113
2.15 1 0 113
2.38 1 0 114
2.47 0 1 113
2.41 0 1 114
2.23 0 1 114
1.93 0 1 115
1.56 0 1 113
1.14 0 1 113
0.69 0 1 114
0.25 0 1 112
-0.17 0 1 112
-0.54 0 1 112
-0.85 0 1 112
-1.09 0 1 111
-1.27 0 1 110
-1.38 0 1 110
-1.44 0 1 108
-1.45 0 1 108
5 Loops Complete both delayed and normal
-1.94 0 1 105
-1.63 0 1 101
-1.30 0 1 98
-0.97 0 1 96
-0.66 0 1 -852
-0.39 0 1 90
-0.18 0 1 77
-0.05 0 1 67
0.02 0 1 61
0.02 0 1 24
-0.03 0 1 4
-0.11 0 1 -18
-0.20 0 1 -92
-0.28 0 1 -82
-0.30 0 1 -153
-0.26 0 1 -141
-0.12 0 1 -202
0.13 0 1 -149
0.49 0 1 -189
0.95 0 1 -144
1.48 0 1 -137
2.07 0 1 -186
2.67 0 1 -143
3.23 0 1 -113
3.70 0 1 -74
4.04 1 0 -117
4.21 1 0 -131
4.19 1 0 -869
3.97 1 0 -209
3.54 1 0 -163
2.93 1 0 -198
2.17 1 0 -215
1.31 1 0 -156
0.41 1 0 -4
-0.49 1 0 55
-1.31 1 0 78
-2.01 1 0 92
-2.56 1 0 102
-2.91 1 0 103
-3.07 1 0 105
-3.02 1 0 107
-2.79 1 0 108
-2.40 1 0 110
-1.89 1 0 112
-1.29 1 0 112
-0.65 1 0 112
-0.02 1 0 113
0.57 1 0 113
1.07 1 0 114
1.46 1 0 115
1.73 1 0 115
1.86 1 0 115
1.85 0 1 115
1.71 0 1 115
1.46 0 1 115
1.12 0 1 114
0.71 0 1 113
0.25 0 1 115
-0.22 0 1 113
-0.67 0 1 113
-1.10 0 1 112
-1.47 0 1 113
-1.78 0 1 113
-2.01 0 1 110
-2.15 0 1 112
-2.21 0 1 112
-2.19 0 1 112
-2.09 0 1 110
-1.93 0 1 110
-1.73 0 1 109
-1.48 0 1 108
-1.23 0 1 108
-0.98 0 1 -861
-0.75 0 1 -855
-0.57 0 1 -860
-0.44 0 1 100
-0.37 0 1 98
-0.38 0 1 97
-0.46 0 1 91
-0.61 0 1 85
-0.81 0 1 75
-1.04 0 1 64
-1.28 0 1 52
-1.50 0 1 -861
-1.66 0 1 -852
-1.73 0 1 -68
-1.69 0 1 -76
-1.51 0 1 -181
-1.18 0 1 -860
-0.70 0 1 -213
-0.09 0 1 -223
0.64 0 1 -162
1.44 0 1 -161
2.25 0 1 -216
3.04 0 1 -207
3.73 1 0 -187
4.28 1 0 -191
4.64 1 0 -131
4.78 1 0 -132
4.67 1 0 -187
4.32 1 0 -258
3.76 1 0 -133
3.01 1 0 36
2.13 1 0 62
1.19 1 0 84
0.23 1 0 93
-0.66 1 0 100
-1.43 1 0 102
-2.04 1 0 107
-2.45 1 0 107
-2.63 1 0 108
-2.60 1 0 109
-2.36 1 0 109
-1.93 1 0 112
-1.37 1 0 112
-0.71 1 0 113
-0.01 1 0 113
0.69 1 0 115
1.33 1 0 115
1.88 1 0 115
2.29 0 1 115
2.56 0 1 115
2.67 0 1 115
2.62 0 1 114
2.43 0 1 114
2.11 0 1 114
1.69 0 1 113
1.19 0 1 113
0.66 0 1 113
0.12 0 1 113
-0.40 0 1 113
-0.88 0 1 112
-1.29 0 1 111
-1.63 0 1 -859
-1.89 0 1 -856
-2.07 0 1 110
-2.16 0 1 108
-2.19 0 1 108
-2.15 0 1 107
-2.06 0 1 106
-1.94 0 1 105
-1.79 0 1 104
-1.62 0 1 102
-1.44 0 1 99
-1.27 0 1 99
-1.10 0 1 94
-0.94 0 1 90
-0.81 0 1 81
-0.70 0 1 75
-0.62 0 1 60
-0.57 0 1 38
-0.57 0 1 24
-0.61 0 1 -25
-0.69 0 1 -108
-0.81 0 1 -167
-0.97 0 1 -151
-1.15 0 1 -223
-1.34 0 1 -181
-1.51 0 1 -110
-1.64 0 1 -125
-1.72 0 1 -154
-1.71 0 1 -210
-1.59 0 1 -105
-1.36 0 1 -160
-0.99 0 1 -236
-0.50 0 1 -209
0.10 0 1 -183
0.78 0 1 -196
1.51 0 1 -143
2.25 0 1 -190
2.94 0 1 -100
3.53 0 1 -192
3.98 1 0 -199
4.24 1 0 -238
4.29 1 0 -197
4.12 1 0 -203
3.73 1 0 -207
3.14 1 0 -249
2.40 1 0 -193
1.54 1 0 -193
0.64 1 0 -260
-0.26 1 0 -248
-1.08 1 0 -69
-1.78 1 0 38
-2.32 1 0 69
-2.66 1 0 88
-2.79 1 0 97
-2.71 1 0 101
-2.43 1 0 103
-1.98 1 0 107
-1.39 1 0 108
-0.72 1 0 109
-0.00 1 0 109
0.71 1 0 111
1.38 1 0 111
1.96 1 0 113
2.42 0 1 112
2.74 0 1 114
2.92 0 1 114
2.94 0 1 114
2.83 0 1 112
2.58 0 1 111
2.24 0 1 64
1.81 0 1 112
1.34 0 1 112
0.84 0 1 111
0.34 0 1 111
-0.13 0 1 110
-0.56 0 1 109
-0.94 0 1 110
-1.25 0 1 108
-1.50 0 1 107
-1.69 0 1 107
-1.82 0 1 104
-1.90 0 1 101
-1.94 0 1 101
-1.94 0 1 98
-1.92 0 1 93
-1.88 0 1 87
-1.82 0 1 76
-1.76 0 1 64
-1.69 0 1 48
-1.61 0 1 17
-1.54 0 1 -12
-1.45 0 1 -90
-1.37 0 1 -103
-1.29 0 1 -171
-1.21 0 1 -217
-1.14 0 1 -137
-1.07 0 1 -136
-1.02 0 1 -117
-0.98 0 1 -118
-0.96 0 1 -108
-0.94 0 1 -143
-0.93 0 1 -101
-0.91 0 1 -139
-0.88 0 1 -106
-0.83 0 1 -200
-0.73 0 1 -832
-0.57 0 1 -842
-0.35 0 1 -786
-0.06 0 1 -804
0.31 0 1 -227
0.75 0 1 -231
1.24 0 1 -194
1.76 0 1 -165
2.29 0 1 -190
2.78 0 1 -160
3.21 0 1 -843
3.54 0 1 -119
3.72 1 0 -104
3.75 1 0 -147
3.60 1 0 -136
3.28 1 0 -143
2.79 1 0 -119
2.16 1 0 -143
1.43 1 0 -117
0.64 1 0 -117
-0.16 1 0 -181
-0.91 1 0 -151
-1.57 1 0 -150
-2.09 1 0 -210
-2.45 1 0 -40
-2.63 1 0 43
-2.62 1 0 76
-2.43 1 0 86
-2.08 1 0 97
-1.59 1 0 101
-1.02 1 0 102
-0.39 1 0 107
0.25 1 0 109
0.85 1 0 109
1.38 1 0 109
1.81 1 0 111
2.12 1 0 112
2.30 0 1 112
2.34 0 1 113
2.24 0 1 113
2.04 0 1 112
1.73 0 1 113
1.36 0 1 112
0.94 0 1 111
0.51 0 1 111
0.09 0 1 110
-0.30 0 1 111
-0.63 0 1 110
-0.91 0 1 109
-1.12 0 1 108
-1.25 0 1 107
-1.33 0 1 107
-1.35 0 1 105
-1.33 0 1 103
-1.27 0 1 103
-1.20 0 1 98
-1.13 0 1 96
-1.06 0 1 89
-1.00 0 1 85
-0.96 0 1 71
-0.93 0 1 66
-0.92 0 1 48
-0.91 0 1 19
-0.91 0 1 -60
-0.91 0 1 -87
-0.90 0 1 -96
-0.89 0 1 -156
-0.86 0 1 -178
-0.83 0 1 -610
-0.80 0 1 -539
-0.77 0 1 -488
-0.75 0 1 -538
-0.75 0 1 -520
-0.77 0 1 -187
-0.82 0 1 -149
-0.89 0 1 -531
-0.97 0 1 -563
-1.07 0 1 -720
-1.17 0 1 -647
-1.24 0 1 -139
-1.26 0 1 -169
-1.22 0 1 -213
-1.08 0 1 -136
-0.85 0 1 -178
-0.50 0 1 -189
-0.04 0 1 -180
0.53 0 1 -165
1.17 0 1 -613
1.86 0 1 -191
2.55 0 1 -138
3.21 0 1 -170
3.77 1 0 -157
4.19 1 0 -137
4.43 1 0 -157
4.47 1 0 -131
4.29 1 0 -90
3.88 1 0 -100
3.28 1 0 -110
2.51 1 0 -96
1.61 1 0 -123
0.66 1 0 -133
-0.30 1 0 -175
-1.21 1 0 -161
-2.00 1 0 -217
-2.63 1 0 -61
-3.06 1 0 55
-3.29 1 0 72
-3.29 1 0 91
-3.08 1 0 100
-2.69 1 0 103
-2.15 1 0 105
-1.50 1 0 108
-0.78 1 0 109
-0.06 1 0 109
0.64 1 0 111
1.26 1 0 111
1.77 1 0 112
2.15 1 0 113
2.38 1 0 114
2.47 0 1 114
2.41 0 1 114
2.23 0 1 101
1.93 0 1 114
1.56 0 1 112
1.14 0 1 113
0.69 0 1 113
0.25 0 1 112
-0.17 0 1 110
-0.54 0 1 112
-0.85 0 1 111
-1.09 0 1 111
-1.27 0 1 110
-1.38 0 1 109
-1.44 0 1 109
-1.45 0 1 107
5 Loops Complete both delayed and normal
-1.94 0 1 105
-1.63 0 1 103
-1.30 0 1 100
-0.97 0 1 94
-0.66 0 1 94
-0.39 0 1 86
-0.18 0 1 80
-0.05 0 1 68
0.02 0 1 44
0.02 0 1 23
-0.03 0 1 -61
-0.11 0 1 -226
-0.20 0 1 -321
-0.28 0 1 -167
-0.30 0 1 -471
-0.26 0 1 -425
-0.12 0 1 -469
0.13 0 1 -392
0.49 0 1 -199
0.95 0 1 -380
1.48 0 1 -429
2.07 0 1 -580
2.67 0 1 -473
3.23 0 1 -406
3.70 0 1 -417
4.04 1 0 -404
4.21 1 0 -443
4.19 1 0 -718
3.97 1 0 -633
3.54 1 0 -551
2.93 1 0 -653
2.17 1 0 -251
1.31 1 0 -269
0.41 1 0 -90
-0.49 1 0 34
-1.31 1 0 70
-2.01 1 0 86
-2.56 1 0 95
-2.91 1 0 101
-3.07 1 0 105
-3.02 1 0 107
-2.79 1 0 109
-2.40 1 0 108
-1.89 1 0 111
-1.29 1 0 112
-0.65 1 0 113
-0.02 1 0 114
0.57 1 0 113
1.07 1 0 114
1.46 1 0 115
1.73 1 0 116
1.86 1 0 115
1.85 0 1 115
1.71 0 1 115
1.46 0 1 115
1.12 0 1 115
0.71 0 1 113
0.25 0 1 114
-0.22 0 1 112
-0.67 0 1 113
-1.10 0 1 113
-1.47 0 1 113
-1.78 0 1 113
-2.01 0 1 112
-2.15 0 1 111
-2.21 0 1 111
-2.19 0 1 111
-2.09 0 1 110
-1.93 0 1 109
-1.73 0 1 109
-1.48 0 1 107
-1.23 0 1 106
-0.98 0 1 -163
-0.75 0 1 -655
-0.57 0 1 101
-0.44 0 1 99
-0.37 0 1 97
-0.38 0 1 90
-0.46 0 1 85

